ECG_Mean,ECG_Min,ECG_Max,ECG_MeanRR,ECG_MedianRR,ECG_MinRR,ECG_MaxRR,ECG_LF,ECG_HF,ECG_VLF,ECG_Ibi,ECG_Bpm,ECG_Sdnn,ECG_Sdsd,ECG_Rmssd,ECG_Pnn50,ECG_pnn20,ECG_Pnn50pnn20,Eye_Num_of_Fixations,Eye_Mean_Fixation_Duration,Eye_SD_Fixation_Duration,Eye_Skew_Fixation_Duration,Eye_Max_Fixation_Duration,Eye_First_Fixation_Duration,Eye_Num_of_Saccade,Eye_Mean_Saccade_Duration,Eye_SD_Saccade_Duration,Eye_Skew_Saccade_Duration,Eye_Max_Saccade_Duration,Eye_Mean_Saccade_Amplitude,Eye_SD_Saccade_Amplitude,Eye_Skew_Saccade_Amplitude,Eye_Max_Saccade_Amplitude,Eye_Mean_Saccade_Direction,Eye_SD_Saccade_Direction,Eye_Skew_Saccade_Direction,Eye_Max_Saccade_Direction,Eye_Mean_Saccade_Length,Eye_SD_Saccade_Length,Eye_Skew_Saccade_Length,Eye_Max_Saccade_Length,Eye_Num_of_Blink,Eye_Mean_Blink_Duration,Eye_SD_Blink_Duration,Eye_Skew_Blink_Duration,Eye_Max_Blink_Duration,Eye_Num_of_Microsac,Eye_Mean_Microsac_Peak_Vel,Eye_SD_Microsac_Peak_Vel,Eye_Skew_Microsac_Peak_Vel,Eye_Max_Microsac_Peak_Vel,Eye_Mean_Microsac_Ampl,Eye_SD_Microsac_Ampl,Eye_Skew_Microsac_Ampl,Eye_Max_Microsac_Ampl,Eye_Mean_Microsac_Dir,Eye_SD_Microsac_Dir,Eye_Skew_Microsac_Dir,Eye_Max_Microsac_Dir,Eye_Mean_Microsac_H_Amp,Eye_SD_Microsac_H_Amp,Eye_Skew_Microsac_H_Amp,Eye_Max_Microsac_H_Amp,Eye_Mean_Microsac_V_Amp,Eye_SD_Microsac_V_Amp,Eye_Skew_Microsac_V_Amp,Eye_Max_Microsac_V_Amp,GSR_Mean,GSR_SD,GSR_Variance,GSR_Minimum,GSR_Maximum,GSR_Number of Peaks,GSR_Number of Valleys,GSR_Ratio,Label
-0.19781588388496535,-1.6472696919846055,1.9602765365226171,-0.37656379035711346,-0.32194457343710625,-3.467255143242525,-0.22330217988201886,-0.6692600315123175,0.36465528258810453,-0.6515797652067727,-0.5261300118642621,0.44391253222122634,0.555279753945047,1.5789501997166258,-0.245693235185014,0.7660325529099986,0.233764217174421,0.9800087291121439,2.165845002616741,-0.5488239069742692,-0.7778319830888295,0.036169644970763276,-0.9618156169301516,-0.5285266138947687,2.2148169160688953,0.6737759958006725,1.2555310001081685,0.20393977927041118,1.6787717078035473,0.26002438767637276,0.9799651399068761,2.1305628879003096,3.052572049452903,-0.6316327458415125,-1.6035386429944412,0.5774554378581984,0.2215274298756373,0.26002438738221695,0.9799651406753777,2.1305628879003096,3.052572050025106,0.5102804471951938,-0.9554966694303119,-0.6810860634892746,2.3572292643525348,-0.4137608589156332,-0.8983422083893107,1.5589327545900802,-0.050165878487858945,-1.6283448622867487,0.03942059021632604,1.1458189752644006,0.8529173020264885,1.282160327941068,1.7579039595559935,1.184270924604699,-0.37127950657362235,-0.9476864583231799,0.0938941032481426,0.7166433718502432,0.8963810110712964,1.9438538438327,3.467309825100767,-0.34453273878894736,1.397932226281161,0.2433412220278332,1.0834145683411334,-1.3704219282861707,-0.9925542302609395,-0.4892710486189251,-1.2942596713406531,-1.4298507032120276,-0.7995957367126679,-0.7753700628647177,-0.8888287096839391,1.0
-0.20665155832750792,0.8346690840063368,-0.44328042609129586,-0.3506034152233994,-0.2939281205897399,-0.0038105414298037926,-0.34417163069184736,-0.6728344375641699,-0.42914364580504094,-0.6519850686796532,-0.22001625848776624,0.09633405139805827,0.46596459726237627,1.5758903692694977,0.34288853932350694,0.7371328066497073,0.14898989616975986,1.0353629076057698,0.6342335123972144,-0.38015966681675506,-0.46027273594351664,0.4551804262027305,-0.4994839144880518,-0.8771841924137965,0.5850544319417411,0.2978641302031465,0.4714239073726191,-1.3953044962648347,-0.5126223852964712,0.04304966243887371,0.3964039898656449,0.2927874890646673,0.6798094869245799,0.028517174973129413,-0.7392386875189416,-0.6766365946183868,0.09306971206860666,0.04304966311915744,0.3964039898713528,0.2927874890646673,0.6798094878642676,-0.5307548456677059,-0.5574281910328782,-0.2446689352231841,0.4116800300005179,-0.32153831516731074,-0.2641306242744674,0.7133970083570234,0.37290655891096436,0.354680518377698,0.7257995089382999,2.9675598839894297,8.6736778530281,4.2398847585643,11.088461361854662,2.206075297468611,-0.5520176702280389,-2.3575107117422305,-0.4627868037109949,-3.750502342050301,8.05136245202185,-4.892801073600732,1.4721516458658261,2.0665160631994963,2.077316794301722,2.2419288448693475,3.5585126148453083,-0.9697126329524732,0.04743191048209755,-0.16882897686890438,-1.1408085491505464,-0.8746658954910816,0.17678041237876677,0.23286307714441726,0.30097481172102397,0.0
-0.05682849485110008,1.3588718338854848,-0.7233124467092802,-0.32260693223606063,-0.24811743417715434,0.21887689514665712,-0.3354959836999224,-0.664346871902299,-0.4539545828152359,-0.6439377460104385,-0.3462148075231411,0.2470889967395183,0.8587280286296332,1.8433276620933075,0.4236238343422633,0.440197834999302,-0.2427735565153389,1.0353629076057698,0.8520521601040757,-0.4314060415113643,-0.4547316788298978,-0.6707946679605138,-0.7784553202402787,-0.8401956116668516,0.7691550470843264,1.0267226589316418,1.354791962226186,-0.27329462381086084,1.1884367842899801,-0.012204734736832194,0.2973027058694367,0.3945271153092559,0.4485511439307482,1.5183355953938558,-0.6007998419352581,-1.2516212521641956,0.21081951444411903,-0.012204734907557583,0.29730270517503476,0.3945271153092559,0.44855114220858494,-0.3630549987830749,-1.102298801926013,-0.8191567518686852,-0.46472283920148766,-0.586000021504412,-0.8756587305417008,0.3385371631614987,0.46062045462764856,0.16996152722106928,0.1373545378888747,0.32226185155127884,0.40805771761961585,1.1082685484084667,0.5125582608536376,2.9578372931298826,-0.9088035834377545,-3.0225895913407705,0.34290490448832117,-0.7413729856792608,-0.23962388637717036,-1.5478867013127846,-1.389316359346345,-3.1391612638000566,3.892138067673678,-2.501558672184127,-0.18394205996595725,-1.2680679061368487,-0.21039730444101234,-0.28709316674142654,-1.4894495605468459,-1.3020031726262709,0.45246308976928956,0.5175406696175848,1.1294305969955911,0.0
-0.49477819651006594,1.2261185000728758,-0.6895424835776525,-0.2783215864197248,-0.19700633776641838,0.6197142809842867,-0.32732571420267265,-0.6286687598349163,-0.42650016697594867,-0.6110395445089069,-0.9588507837124322,0.9889623423971683,0.5094903843562429,1.0250278516953637,1.1864318132784506,-0.14147841095967184,-0.7144288143166738,0.6499964225925454,0.5856999563798809,-0.36224159931203304,-0.1559785358519815,1.9547843228209123,0.14303795503310007,-0.4757776813512996,0.5569653375027918,-0.05107725782519902,0.4763627487269407,0.3885819232032379,0.7333656737688268,-0.4981256164731753,0.34427845029960563,0.5802653759135723,0.5455261871767654,1.864331422512017,-0.01516164888688312,-2.214320884839844,0.21555373057459634,-0.49812561567827984,0.3442784502629042,0.5802653759135723,0.5455261867738689,-0.7823347520220302,-1.2201086637407448,-0.8578872445590692,-0.7551814619325916,-0.613124299077448,1.6615166400043209,-0.5302388596164066,1.0680014244296026,2.346166044233027,2.7805781121274236,-0.040080035185764286,1.0800282164128383,1.220905050730418,1.630290973048958,-1.096050777070225,0.11074117751575598,0.6882091500616766,0.5492998004542363,-0.4660327271177124,0.9537223878277462,-1.7664586664118902,0.8969705098829891,0.448001541699876,-0.8835660343839765,0.9787930366376693,0.02474032454702117,-1.0016262100294475,0.5124997736638879,0.10921394916726886,-1.316195204443766,-0.7776277079215391,0.47543664621849957,0.5412638023236819,0.32741488997446777,3.0
-0.16017277383389625,1.4179720232282969,-0.7664346187326828,-0.3241340131262791,-0.25228204203284393,0.04334679808050557,-0.33221102998453333,-0.670562513422356,-0.43443060346322554,-0.649358247998536,-0.3688486338786992,0.26754711854407676,0.9157294535056835,1.9597574542360856,0.1997341116028714,0.7945294863470598,0.3676682158847513,0.8678307990895442,1.3519910299344091,-0.44161078693231554,-0.5919823582940672,-0.3080293619108895,-0.7844151639086218,-0.6330595594839606,1.347419788432895,-0.35880405737645055,-0.14468787918059423,0.5180923943992182,0.4445382530690542,-0.5548651744103841,-0.2434150460676991,0.8425804451865433,0.24231949602178404,-0.22968540560821013,-1.0181816135669723,-0.18930803799152046,0.2261900170540517,-0.5548651750278453,-0.24341504574044845,0.8425804451865433,0.24231949732446836,0.06368845878947012,-0.7824834434223304,-0.5835867759197547,0.8705063865100495,-0.421898142187544,-1.1440799122919278,0.6219219542458788,-1.489843251764379,-0.1838725471437482,-0.046016443945391575,-0.1846208950658704,-0.30178395918018536,0.5487889047690584,0.05528379324428303,-2.4150038099276423,0.9240803652461733,2.376074846310357,0.6273278242141537,-1.8584667613883128,-0.2837150025563299,-1.5417161962221781,-0.8555173744028709,-1.3638603159431015,-0.31311710843733387,-1.0049227717677185,-0.7737956437840897,-1.435823641285669,-0.9529786339106401,-0.48469865386076916,-1.3668120866723397,-1.4955011591267444,-0.16782293435938664,-0.12298391344704214,-0.6200212474405956,1.0
0.28596778973432996,1.2816103119328097,-0.6183782929102082,-0.3694374128694272,-0.31475115986818786,-0.17672078630093813,-0.33709634576639397,-0.4591812404020638,-0.36834363273591797,-0.43973588422932236,-0.5182187548593086,0.43512436824410594,0.728787444392541,1.8424584233514858,-0.12559092456753432,1.007857310794805,0.506172365721423,1.0353629076057698,-0.09456004635119206,-0.24013981301116155,0.007325980301895661,0.6123667194153595,0.07659203839029693,-0.44297041842792245,-0.09420767429018508,-0.572229373578352,-0.816251700628472,-0.0541870160075353,-0.714129888110266,-0.6510691553694067,-0.2120957948294235,2.1700962520164344,0.3079366209807999,-0.8690699449366796,0.4839135413712801,0.9858294092539742,0.211557868436388,-0.6510691553568421,-0.21209579533492817,2.1700962520164344,0.3079366199096315,0.8957112608559643,-0.9988276403901919,-0.812947739892897,-0.35750973269555936,-0.5561633161740723,-0.5871037610251639,-0.28410581363046705,-0.4621660377769248,0.4435390186563663,0.5383758984335469,-0.5576914410275993,0.2765195390575679,3.601766733800068,1.6318078697136187,0.3621668485268091,-0.07969223326132671,-0.20506740868229215,0.7521908380703326,0.41214391266717354,0.10694066303092672,3.8180729384443337,3.2792298273101186,-1.8670603531464744,-0.2779808806972528,-1.8040147694206587,-0.9103849094134931,-1.3322259190280874,-0.8669086062081117,-0.47267266265748614,-1.2714900087269077,-1.3727361989106384,-0.08167209767484834,-0.03402216579917734,-0.5442263564473906,2.0
-0.5488030303796558,1.2882943140609455,-0.5076481285095118,-0.39794292282017213,-0.359047443424159,-0.41774718824251933,-0.34198166154825466,-0.5762397411776722,-0.4113945736668498,-0.5576243974130825,-0.7131955620057525,0.6671789362445444,0.3147326271146926,1.2721697613775835,0.06874034788269205,0.7727337213639571,0.19596023849650623,1.0353629076057698,1.7228358191021729,-0.5183273189411193,-0.5745737197749329,2.2621361780072022,-0.5043025114964994,-0.5822404659359843,1.7741392958352997,0.8438751639426673,1.9408474305961947,0.01657808480498235,1.4302457876665338,0.6221926704455596,1.9133507984812819,1.3708742735101593,2.7939607173900964,1.1886202164298403,0.02545123264322356,-1.1049038856601507,0.23091344024908994,0.6221926706671007,1.9133507980562536,1.3708742735101593,2.793960717956154,-0.6156104674723918,-1.0703919643021023,-0.8001639252754973,-0.41344573435824594,-0.5792189521111529,0.7207889586257056,1.0812567451753556,-0.06465550998928762,-0.9286285006286867,1.2513067519551029,0.7191744196434827,1.1644913917966726,0.7801786345753172,1.0290788895779825,1.8317911497943535,0.08422316415259049,-1.4154708808998728,1.0466845329392755,-0.1202268206728999,1.0028194400553736,-0.033231551808818524,2.1267287774083172,0.5936669380855,1.6311941223452813,2.8742693016443877,5.485929748977801,-1.086977198706703,-0.23636017547669425,-0.29758372628722396,-1.2935245323795705,-1.0299389262085141,-0.23674360370701744,-0.19415331156533414,-0.6094452161392181,2.0
-0.3276497588296249,1.6221918049988582,-0.9352623498486395,-0.44579145738035103,-0.4627840391022453,-0.49634275409303497,-0.3428239573727134,-0.665072304864852,-0.44375830733159416,-0.6452509095157518,-0.5861021235244185,0.514600891298336,0.7255840509429625,0.6150063916394329,0.5829576554086674,0.7285567830542006,0.3587734495060984,0.7760323805251366,-0.8329863830180421,-0.04177619182406237,-0.33566640597647884,-2.1711449261707747,-0.5722700903524964,-0.03255799205312597,-0.8579623095232622,-1.422889923841779,-0.30439804285984784,3.7537002985860117,0.3975198357458354,-1.6098041631215148,-1.9701310829458283,0.20150834629285125,-1.998162444974722,1.4890663764697611,1.0419936975976167,-1.4778819826883893,0.21590290889624394,-1.6098041635127172,-1.9701310829484977,0.20150834629285125,-1.9981624451146955,1.1553577617963862,-1.0040392836046865,-0.814169313563337,-1.0725078265219916,-0.5737940965965458,3.5562239719862743,-1.0633435810303877,-0.4646245802964118,1.2339084589194618,0.0493809718518496,-1.5591201554096885,-1.0155860245518877,3.3149250309965574,0.08919837111175213,0.5307821218108384,0.11636759029159104,0.07744653803774848,0.6932703453348392,0.7954060549396376,-1.116228291876638,2.995149550699676,0.9692205053795465,0.006128360526457135,-1.7625749000600646,-0.5084294460465245,-1.3031598057050744,-1.27917364971968,-0.6047423025960151,-0.4184668484153244,-1.2967295685650835,-1.3115642146275275,1.3541751804007907,1.7096280880989734,0.8297763767898967,2.0
-0.4825790404749973,1.3132858214736296,-0.5463429702933688,-0.3373687141748392,-0.2708334770263703,-0.11384433362052565,-0.33684365701905633,-0.6161385541180907,-0.39062438286683887,-0.5999813255167952,-0.5122380126001738,0.430096040597503,0.5835692645932148,1.3669350061412286,0.7270473585411411,0.039807402100755326,-0.6000793989722129,0.815233510380567,-0.8443367369579028,-0.10811164622143571,0.0884612516878341,0.0644292807789022,0.21024470278250024,2.0323697331241415,-0.7105899808716432,0.31685002542548085,-0.37663074273386543,-1.3899524234575529,-0.39171788360819426,-0.08973916421213504,-0.49167410333346057,-0.7566603733984165,-0.39479326610925414,1.0840440836339356,0.6628943918744057,-0.1871759985142275,0.22602873348263955,-0.08973916467804295,-0.4916741037154715,-0.7566603733984165,-0.39479326549497823,-0.5452408696090645,-1.124388151016275,-0.8197791741851413,-0.5122498657581603,-0.5900686631403674,-0.26665986519844254,-0.5326691248254407,0.49834179302914133,1.0585179103948714,0.14453140530782235,0.44403511580838007,1.2157707503126363,0.666916980036943,1.3700262712128894,1.304620051494745,-0.25018701560762724,-0.627649608747311,0.8822658099152151,1.7863905583467106,0.7248576347770552,2.643517460367055,2.6109897046775075,-0.9049570147318662,3.2296114686740918,0.1370454187727665,2.3622838697948088,-1.135570063016936,1.0566696439852588,0.5402724518342319,-1.6021442332223597,-0.9576673710748974,0.7855796582828378,0.6658102490306929,0.02776066976877324,0.0
0.24065663874693205,1.1558118625160478,-0.514128672383882,-0.310899312077719,-0.23865241632331435,0.357729061482568,-0.335074835787693,-0.5162266506391913,-0.3894914633686565,-0.4900902742826872,-0.24765493708011366,0.1164411059184078,1.0774704258002712,2.175389988933056,0.1141169713025816,0.7387131561310041,0.15107494248747974,1.0353629076057698,1.0288325085298708,-0.4351987927246562,-0.6408417035114425,-0.45336720234653294,-0.8400826398746344,-0.6449602332894995,1.0191378182271331,0.5417525646145087,0.6642166503754593,-0.6669292089053361,0.5637635255672161,0.8043705445488855,1.2546197643100316,0.5412429611338668,2.2665976170570974,1.5206806493000746,-0.3039716313145468,-1.0359995610400083,0.21510847559283233,0.8043705444996403,1.2546197648590043,0.5412429611338668,2.266597617118092,-0.24544319440479434,-0.9938155541225265,-0.8274710926575201,-1.1998692142258904,-0.5765065243538494,-1.799341311150604,2.5406248733354055,1.0034678934078032,1.3859189194260293,5.007114977178503,1.3302738919721133,1.0029109631840865,0.4083774513570613,0.9314259651193557,4.547761036373899,1.4158570687968264,-3.9240339449091226,0.5827183011798368,-2.006228772939968,1.0808562797932544,-0.889292179281078,0.4420245083219361,-2.9382004371128154,1.1029214023673672,-1.3853758176799942,-0.5635313756823445,-1.466375932864444,-1.0485407439450611,-0.4947095420884626,-1.3812583079229714,-1.551652979295931,-1.5439389656670792,-1.3554006575287965,-1.1787882345300373,1.0
-0.45120978209910634,1.2715350939642787,-0.45725265014987404,-0.3037729345900328,-0.22577999204209195,0.4022665487978602,-0.33423253996323427,-0.6518826146366146,-0.4095063745032125,-0.6335509188857051,-0.56003928789747,0.4997346355151521,0.7377535215246744,1.4334444649455467,0.6640827990534762,0.15948192384770377,-0.6131382662197623,1.0353629076057698,0.14574317868707726,-0.3574963311554742,-0.5290372447669612,-0.8624442491317735,-0.8812943248153042,-0.4432920582605046,0.07523734705727946,1.7305601927312086,4.334403072296646,0.8111776478157666,3.8231473835803476,0.2648573535657539,1.9475303657528855,2.208871396750376,2.635387009218849,0.4377318586191736,0.7820450445487956,0.2517085527479914,-0.061216843252484845,0.26485735365065927,1.947530365399345,2.208871396750376,2.6353870086951496,-0.6310101918265092,-1.164885291015089,-0.8614180862488472,-1.4173815498526694,-0.6144805129560998,0.15076874583956978,0.6723256785424687,-0.09328779595422583,1.0703396981494246,0.5832861480941955,1.8274021561341542,3.4712909089096136,1.1769926535349422,2.8988826061759507,0.7923412748900771,1.2697597979741917,-0.38945639582208397,-0.1209776039122877,0.6300338582519655,3.2777876920840794,0.801646386912282,5.163338078603287,0.6046713471158555,1.5045336311871353,0.07346987371573889,0.9262049071364783,-1.225122288368277,0.7879329776915085,0.3131463398745424,-1.3707328741277645,-0.9880575623105691,0.04468246279580786,0.4938175369114874,0.6799492666870494,3.0
-0.26107722160967867,1.4458856697830818,-0.7700874401130767,-0.33889579506505774,-0.2927923184472791,0.26865408685198366,-0.3376859528435151,-0.6697876191214469,-0.43178712463413327,-0.651188778178123,-0.22067789128698265,0.09545068881702456,0.7851703423680938,2.004536214399035,-0.8189775576899919,1.0716974371668402,0.5904003304786599,1.0353629076057698,1.131087810571576,-0.43960847808318776,-0.5608214773626368,0.24560763916498007,-0.7717346454653388,-0.920605569812384,1.1855056650188014,0.30774275612608964,1.0229112644660026,-0.3891692315513366,0.4395005654987093,-0.5663185388971204,-0.5435507701248422,-0.09013531812177922,-0.5238484114959132,-1.7222945137027073,1.980476877313606,2.8588865478607954,0.08952956575727877,-0.566318539543378,-0.5435507703937181,-0.09013531812177922,-0.5238484116367447,0.9469481701843282,0.5188861715890725,0.32701664125624025,0.29709270288698675,0.051420501461934665,0.5760839980137813,0.8426602571496615,-1.1205252286386465,-0.036552757642259716,-0.04684828591636981,-0.1615600280916758,-0.661693118519874,-0.7508490878929807,-0.7213200786371504,-1.450633853490409,1.9711914453392936,1.6339480813392824,-2.9223314966011062,-1.2727170926718392,-0.4850087716240069,-0.46336119068830023,-1.169492925216398,-1.0571052683168995,-0.8324575976562912,-0.0792981575411328,-1.000937214099222,-1.2430869360268257,-0.3300298699995899,-0.3332746896279377,-1.3324749237779885,-1.187048717419721,-0.2712039383808327,-0.22973801062447993,0.43317520298824214,3.0
-0.6202552300136296,0.9014509662039665,-0.6521612678483396,-0.3460221725527439,-0.2939281205897399,-0.009050245819838166,-0.3383597895030821,-0.5188645886848388,-0.3407759249468126,-0.5009510250785111,-0.8624603882886523,0.8665988834935748,0.4247903331959199,-0.2144605439926984,0.1971117261333882,-0.3332357486529906,0.25238470403504043,-0.7600579393354682,-0.9151736052624205,-0.016860699217370306,-0.07801051015359138,-0.5309718038944012,-0.07367210516260715,0.47627622309180195,-0.9078127184396694,-1.6283351933606098,-1.1592185508686836,2.082838829523048,-0.7678652221939446,-1.523345257459668,-1.5926051691200545,1.4103708880083607,-1.4970422158392322,-0.31816696386001814,-1.053485352553039,0.05787575573748429,0.1859856292995915,-1.5233452577368014,-1.5926051689972727,1.4103708880083607,-1.4970422158777994,-0.482146192713988,0.13225037451665644,-0.47321466003123797,-1.5656763797145765,-0.3920614368572044,1.6913551044711634,-0.35096436656240093,0.582817754315949,-0.4357554994824076,-0.36733750201314574,-1.3652491189835214,-1.452302793064104,-0.528696781107471,-1.259718421562877,0.7501245767824213,0.5469373795475361,-0.4945924810647308,0.7927179528770455,0.23520861643193092,-1.4841465624986139,-0.24393793808168562,-1.166622822245065,-0.5320455538179271,-0.8039957351057627,-2.7656041552536084,-0.9263007112646371,-0.2607655082986149,0.19511915826090068,-0.08955686968849279,-0.2268029783467296,-0.021268396337609307,-0.644524230680499,-0.7753700628647177,-0.8227285140503301,1.0
-0.36076175378195424,0.936752233429944,-0.7703416672292275,-0.394379734076329,-0.374191471990303,0.12194236393102119,-0.34981501271572085,-0.6573563360813331,-0.3706094717322828,-0.6419433172279326,3.293020286620333,-2.582836593347913,2.7467092414268595,0.5140150830111271,2.5270070863900926,-2.6434536775369812,-2.9872705603970964,-1.2183428913980643,-0.6470526154996958,-0.07698821226641128,-0.02829886939387677,-1.1004732871740428,-0.31130502078973143,-0.4178825114865164,-0.47706448796171097,-1.9974257903154344,-1.9240776917158098,4.162384566233882,-1.375746189015559,-1.3195573787661212,-1.6042138353771902,3.970026018065881,-1.1723032946118168,2.217785224610509,0.70434878829303,-1.7201879586861877,0.17392970553402706,-1.319557379350534,-1.6042138356464666,3.970026018065881,-1.1723032947324388,-0.8041785129499696,1.3152577378880042,0.2809604311084585,-1.4187060627760868,-0.18184828566617517,1.40241077415261,-0.6856995058901288,1.250668528629947,-0.6253899212700835,-0.2519558030177659,-1.3866720449063124,-1.3587929727305275,-0.06711451820742742,-0.9210133771565802,1.7974763839582513,0.05054693834146322,-1.0359402904839325,-0.844634016471844,0.16001278773049593,-1.3083884830252046,1.0789261957701313,-0.5480738135671829,0.1830945594505891,-2.093617705502698,-0.39161970692377024,-1.791917651562839,-0.563500798980913,0.5929221190367705,0.1657400076868003,-0.6108307853601568,-0.26591468052645106,-0.12187582146096644,-0.0755376480348478,0.06301410744003151,0.0
0.7024818315031037,0.9608945578620547,-0.7957299518801888,-0.3684193589426149,-0.33103099057679264,0.31581142636229304,-0.34956232396838327,-0.38861639768099293,-0.3657001539068257,-0.37950808436157224,0.3300725300410473,-0.4707109019509572,1.783252665823029,0.6598743168932948,1.263646196645541,-1.049109010422181,-1.55741266028168,0.10736640139120614,-0.8221617217732536,-0.03010282419438894,0.5525415839568191,0.9105465732623721,0.7976063170753709,-0.434286142948205,-0.8962474246535745,-1.9065634115950927,-2.1195947194360927,-0.2365652964193251,-2.1431539288980943,-1.3858302838976568,-1.9358350197833925,-0.4284034448991905,-1.9305236443065366,2.6432248788469117,0.6842589084647634,-2.529764519096357,0.20721402936210528,-1.3858302837814207,-1.9358350197839747,-0.4284034448991905,-1.9305236444096874,-0.7203285895076539,-0.47643391103525007,-0.4470796192197592,-0.8718143269967085,-0.46258455854709807,2.073193685667006,-1.0691808741724813,1.4256946439657845,0.9358206799184556,-0.359143712371379,-1.569794544292359,-1.3126695193088513,0.6512824528260088,-0.8502056580222717,1.095336977035341,1.3861662433506265,-1.13087083385192,0.4679257046746572,0.2519966260795732,-1.3298916746686977,1.7555122506362961,-0.4355981393462414,0.1560825304480906,-2.1975723624761536,0.1349831692177672,-1.8496167681354327,-0.3047593392644492,0.3348579965496962,-0.006819169485956746,-0.29203930831707703,-0.06935770887260462,-0.33438121861616094,0.11424741361393072,0.30097481172102397,0.0
0.46024144737816836,0.919068996207409,-0.5073850964115164,-0.3684193589426149,-0.32194457343710625,-0.244836943371385,-0.3383597895030821,-0.40345479918776017,-0.14666905092489213,-0.4140650187119207,-0.768966155311367,0.7314089769566052,0.9837684306725322,0.7630677949910893,1.0911172362678954,-0.23373436189226782,0.5396030623375764,-0.8928076074967354,-1.8356837604517082,0.3597480210721758,0.605086429650786,-0.5684127640490335,0.5890117886833648,-0.6925629285116545,-1.765651747392341,-2.0496696580583693,-2.1108585774512116,1.6018246239036573,-1.8879110920006208,-1.6541888260409356,-1.911657488784397,1.0643170489774236,-1.8905975409355686,-1.8726526500611902,1.2371659058572015,2.1210138946277053,0.16691420470976592,-1.6541888257074244,-1.9116574888800095,1.0643170489774236,-1.8905975409857068,-0.9299684616612117,-0.3291715837668353,-0.7005440882531151,-1.3986814761200668,-0.5195455414504737,2.4769971252553407,-1.7119449950634624,-1.2624044980970741,0.09222932987494267,-1.041445699031639,-1.9036932366340809,-1.732448910032213,-0.26716626090665424,-1.4385283366022479,1.6096567593191007,0.6035297598439329,-1.7106678898539347,0.23639412246572966,0.20766733234633206,-1.7618828312760544,-0.5362776219410972,-1.5044301372910758,0.2496271398760098,-1.8692518972491197,1.492605128332329,-1.1750056692633233,0.44814838443874466,0.8260211599013467,0.3436458695913144,-0.11793725712835314,0.4411506828874693,0.7396325453844174,0.814079828443801,0.512495437748573,3.0
1.1155104001190006,0.9110689086734989,-0.6302335212812656,-0.3271881749067161,-0.25833965345930154,0.0381070936904712,-0.3360855907770435,0.8436304118921005,0.10030739967887436,0.9573516045061932,-1.6234085489427785,1.9420227111645894,0.03217193074548782,-0.7926787924760211,0.059240077695865735,-1.2983236918899037,0.6335079290508474,-2.590235063811848,-1.6127627261992532,0.25388730237163837,0.41821401878655867,0.46126027892192356,1.0453836474571216,0.2932631583525706,-1.601730418466717,-2.192069036827412,-2.2527367899064528,5.316570433776347,-1.6225928799624576,-1.935502189255479,-2.2256811761707187,2.3577974385618843,-2.0563284679703155,-0.5572721274397636,-0.5802728382603443,0.919177096705013,0.19045483247010817,-1.9355021892735942,-2.225681176239058,2.3577974385618843,-2.0563284679832363,-0.38290352961625373,0.07685169040825765,0.13601117646435443,1.305103642795253,0.06905128188440808,2.5797914086347915,-1.717832023215061,-1.3529337670149242,0.06597505371802438,-1.1337537934672408,-1.9248580688964274,-1.7685392296668632,0.1034789465099931,-1.275917338043805,0.2916996579073887,0.04290136404666016,-0.5935829817437526,1.0674822739959209,0.26988057200852045,-1.8697120550290651,-0.9466296543513545,-1.7497728553699305,-0.26998857755895717,-1.2323677339385277,-2.449017834928883,-1.0035079845036732,-0.1900597762154429,3.792098243915283,4.434112442114023,-0.5497438857939031,0.5021388602408242,-0.0070080392149152355,0.04307801549563872,-0.5530397158652051,1.0
-0.726562161176371,1.0017907261335708,-0.48155608380088727,-0.4407011877462894,-0.4536976219625589,-0.4098876316574678,-0.335074835787693,-0.4400561895711193,-0.31434113665588953,-0.42986247441493713,1.157805738545186,-1.2021880255292576,1.9943471710191605,0.04916512731601902,1.2673754776508843,-1.9005014632367352,-1.114017491997521,-1.9773328318298604,-0.45957760853704066,-0.14661254890888875,0.09349807229981394,1.7315507488201927,0.9892089507533777,0.007003707354475887,-0.45730414414528125,-1.169548502665552,-0.6892198119807159,1.3384883407777413,-0.10960737966888155,-1.072298372324646,-0.5990783799165543,2.0014009212979613,-0.01788303481598471,0.14361650567883968,2.4960265399110098,0.20637254108494452,0.19296764272191044,-1.072298372653118,-0.5990783801530446,2.0014009212979613,-0.017883035728746985,0.012913138008482386,-0.13843180679411554,-0.19962164559491094,0.8044633020308993,-0.18591692730213058,1.3713246082645112,-0.5888542786238028,-0.17216715848950317,0.052343398370963495,-0.46050188700151334,-0.9028841033861487,-0.36981602100105865,1.9051970007717192,0.3597505816237539,-0.6038505960103272,-1.0616188483604148,0.5683326229088741,0.13029015009732278,0.509371514365745,-0.47716212344575537,-0.7343573497273371,0.6441440798061335,-0.8219056630284914,-0.8204076943423102,-1.6187967590195262,-0.642060565630171,-0.0678370224930554,0.43745216590241803,0.05871170882582166,-0.20344935746100756,0.18681764012882512,0.08488618658192597,0.13797054632002817,-0.47460081704665563,2.0
-0.2548033699345005,0.9711217372452086,-0.5119288532267876,-0.4508817270144126,-0.4423396005379509,-0.5801780243335849,-0.34678274774766943,-0.6703844526042747,-0.43178712463413327,-0.6505529305860767,3.6977876607147384,-2.787642192757949,1.4325256771084978,-0.47557688251878205,1.0380937826827075,-3.0264408435817844,-2.750884978638111,-2.37224025230978,0.09913700908207186,-0.2329646045430324,-0.4116164416753823,-1.0132017139136111,-0.6770111726940145,0.8976244037743909,0.15898603445319368,-1.7551599679940888,-1.8085782876837901,0.5689437196683302,-1.526876816125905,-1.5215320101471048,-1.508066165440923,3.061008414277819,-1.1839730557203771,-0.13412472152039862,0.9781570411482414,0.23787806272845227,0.22706890874002006,-1.5215320105080397,-1.5080661659756327,3.061008414277819,-1.1839730558064958,-0.41028081537205363,0.6121745232783493,0.01214129558495572,0.689989123677739,0.008021657345077019,2.7349255551679765,-0.40450294908269413,-0.15576284396364332,0.5106300065263633,0.3949672152887973,-1.1013422902303145,-0.7344822584260191,1.8790004990743834,0.056385042254133814,1.336753585758748,0.009519716845764411,-1.1750176253204905,0.828418451821264,0.705653395769581,-0.779511269721847,1.220275146264587,0.9029086101782888,-0.15793616492950127,-1.5375272118427221,-2.029124281278419,-1.0983039601624716,-0.2232172729838461,-0.7435102141855021,-0.45045510020278473,-0.11935191370046616,-0.3032240219193956,-0.07018531945024334,0.14983211267307672,-0.535412997029576,2.0
0.6223159489869381,0.8688941140162468,-0.45209171044930013,-0.4707337785872528,-0.5006441105176053,-0.47276408433788025,-0.34669851816522357,-0.27749325750809156,-0.2728007550558677,-0.28768537308778924,2.2340798720320687,-1.95726268686195,1.4250014883966995,-0.1462021084326239,0.8335892222084279,-2.821238285175805,-2.6275692715837513,-2.0788487375669047,-1.3742193196914088,0.16344912105163498,0.15348414990040288,-0.6716350079914629,0.14481322761515972,0.698207707573471,-1.3963467299839645,-2.279798694272313,-2.669335205440875,4.300262423192408,-2.2187192424532673,-1.8512841199747743,-2.3682451386075756,-3.0585464936528393,-2.504907572115911,-1.4244143301149221,1.3913784616196632,1.5149909948457145,0.20590375723264193,-1.851284120044653,-2.3682451386662478,-3.0585464936528393,-2.5049075722990604,0.07737710166736989,0.16562983585503824,-0.11977410606540508,0.613794103264366,-0.1059003084616743,5.492141670716559,-1.5726486172978769,-0.4598657287379153,0.9418736724405653,-1.1543976509800151,-2.0387680587588553,-1.9752409047178792,-1.86019494979017,-1.7286386609917215,0.08467434263544579,-1.4660665886892659,-0.2149050971461419,0.6324642880630863,0.3481843321195979,-1.962391368739837,-0.13528360875000764,-1.8398298812465212,-0.1182299322953618,-2.014357691376443,-3.0956198708301206,-1.8217670233260357,-0.026629204492962945,-0.46384881018249713,-0.37840337427456694,0.02536800185149196,-0.18364830809722363,0.8545003276304682,0.932695491974287,0.49486871891294393,2.0
-0.2690938098612952,0.8829656319470989,-0.6530884942259311,-0.3394048220284639,-0.2855989048783607,0.11408280734596962,-0.3395390036573243,-0.6706284618734971,-0.4102616541686674,-0.6498617918990697,-0.7104948105500697,0.6642390939241919,0.42903724034246044,0.10221469021065793,-0.03472276473770787,-0.10148513218032013,0.32025713601455574,-0.4686645799818061,-1.8837907267719392,0.36526590944877235,0.9851686476985396,-0.7385669545391383,1.0720127361880158,3.0947461001429133,-1.882437741824936,-1.3467526208191876,-1.8807579197458377,-1.7436428255900553,-1.9601179471755639,-1.43134031244391,-1.8557932290811916,1.4282337048940172,-1.6603071228651742,0.5510937240166883,-0.6500496900457047,0.0016048221712000154,-0.02951459771436885,-1.4313403116735455,-1.8557932291733146,1.4282337048940172,-1.660307122848882,-0.7226946427940674,-0.243268560017801,-0.3433193652507021,-0.9005921779935621,-0.3798555119493382,1.1754686699245158,-1.9120855905979892,0.1997649423926754,1.6543675264491928,0.20016969680519778,-1.6822728417130108,-1.0765566991263593,0.30694309660725305,-0.8692619528584431,0.07492416799924288,-0.06492321257374495,-0.20966662206286213,1.003487931034765,0.6542319420003876,-1.3072799628888847,1.9951793447560653,-0.6136525806309554,-0.027332738139451525,-0.6298719745380109,0.29727963996080203,0.3995071603492806,0.015564240510547573,0.9553902496766971,0.4514100133239436,-0.14460728743946716,0.19253852498156793,1.3656619586253962,1.4605351946849523,0.32741488997446777,0.0
-0.5383466109210255,0.8022175057872123,-0.5369812458422669,-0.3129354199313436,-0.24849603489130792,0.399646696602843,-0.3379386415908527,-0.582175101780379,-0.36079083608136864,-0.5693737550922009,-1.9665431250734902,2.531400238283538,-0.6792064054758993,-0.9151594671835899,0.03215026231173729,-0.85488370054889,1.0257171161031557,-2.2528024742379897,-1.2459146099464709,0.09430802677134137,0.23363631976472823,-0.3277562941673704,0.5777261272688429,-0.8096398275715494,-1.178986559844845,-1.6847999801702969,-1.5558283152946384,1.653849081071933,-1.1171448937378556,-1.46102018803969,-1.385310660605601,3.7430879669226385,-0.8316336617958797,2.6044201380773866,-2.0777526927365786,-0.7673599748963997,0.22029032994149367,-1.4610201888895236,-1.385310660581267,3.7430879669226385,-0.8316336617410355,1.196965710194574,0.5949893145191426,0.17661103270076095,1.0476739711876668,0.2901141441046517,0.3985611102976988,-0.33192983154571337,-0.2602858928139472,-0.4853995499007438,-0.9966504761205504,-0.9115678082389507,-0.23480736622694276,2.7491049348944796,0.48325397704846634,0.5937248882556247,-0.18436254121164242,-0.2677831783942017,0.24564913154760193,1.6174781456222684,-0.3477865109467144,3.3517382864389766,1.5224518350995748,-0.343411460187861,-1.2242982251384968,-0.7025951700006509,-0.592229477112487,-0.18850929725950663,0.16849766811159,-0.10446657010296768,-0.14801116421653943,0.12008816339077753,-0.9948709665309549,-1.166801752515323,-0.9126247801120384,1.0
0.08032487371460074,0.894872475746307,-0.384881260427738,-0.35772979271108557,-0.3242161777220279,-0.05882743752516472,-0.34164474321847116,-0.6415616820330187,-0.4499138366050519,-0.6238749772676075,-0.7020862083923439,0.6420215065087264,0.8931571044028451,1.2913360926519797,1.0816139686368704,0.13128331690226613,0.596879397887728,-0.3958564435503011,-0.6390445784429205,-0.08480908488750546,-0.17855057262621515,-0.7009263273044765,-0.2208929242891233,-0.6854868521948476,-0.7054200615698618,-1.6992867956056334,-1.4986236589150104,0.2469907768381225,-1.5974044421107332,-1.5222773028688397,-1.8210840107356048,0.8943988471768493,-1.758745098876171,-2.3287789781091237,-0.8936108553075763,1.6570045450430888,-0.06986329336441154,-1.5222773026907168,-1.821084010824328,0.8943988471768493,-1.7587450990352136,-0.8543061860293713,-0.13036744195447536,-0.7058904054120512,-1.3986814761200668,-0.5019147610280003,3.808479914537789,-1.0081072521705852,-0.4368031866890383,1.429682370783974,0.3574781604752734,-1.6444159973336885,-1.6902142263019972,0.7446228133074536,-1.1265975608802439,-1.0574908489216868,0.06445060734272426,0.8013287423921349,0.8408470771151791,0.41456714157157376,-1.6729484613788448,0.9860463309258107,-1.0498095837303127,-0.08114818164674886,-1.46394915118259,4.174908049016881,-0.0729995034629429,-0.04180409229841278,2.6425066753815734,2.4467344716444335,-0.37813792131893303,0.23611984885076248,0.42948953332007916,0.8971107929151415,1.0853637999065184,3.0
3.224936179605785,0.8488641509857353,-0.5824468921037492,-0.30020974584618965,-0.21745077633071278,0.40488640099287737,-0.33684365701905633,3.2507488785454544,0.8555870651338179,3.1986156323716495,-2.1180636081244937,2.8289611776029364,-1.373212354974943,-1.3231358498676817,-0.2442579832619598,-1.8677238915361483,0.5574415683896925,-3.3929712835390373,-1.1011973722407544,0.07063848812621339,-0.23463797964956554,-1.589467115501863,-0.5056973685252605,0.23118667066421975,-1.1738145067461463,-2.3982440341776137,-3.119640877030558,-2.983518677219734,-2.767827187620858,-2.0339192221411655,-2.4833926865672837,-2.2926833317110367,-2.5368024005772245,0.05998553587705479,-0.7245638190974577,0.5171664776764846,-0.043435657931866746,-2.0339192222294145,-2.4833926866371936,-2.2926833317110367,-2.5368024004945804,-0.3630549987830749,1.1189079672150355,0.16952164822400015,-1.1929032818633387,-0.14523051094257652,1.4834232037862736,-1.09334534429493,-0.17975304880908977,0.3932669363962261,-0.8715918319749617,-1.2788033286422031,0.7333373969492307,5.187262443415553,2.031238594910937,-0.7380844014959959,-1.171979572302029,0.8065879456441232,-2.8442333455833864,-0.9036948997115585,0.4291321978512989,-5.361615125623886,-1.547978904861865,-0.28287106364431763,-1.3743714690258333,-1.183941129391233,-1.0217297748520713,-0.26151758664291275,0.32915115577137055,-0.01034537001698998,-0.22695764917933678,-0.15318197185038912,-0.2712039383808327,0.19134759490874678,0.43317520298824214,3.0
0.005387200927750217,0.9812407902371884,-0.24119390995636109,-0.3475492534429624,-0.174668895631356,-3.4567757344624566,-0.31393321059377877,-0.630317471113446,-0.46441520618178683,-0.608176255662735,0.33950556810261034,-0.47831223408534057,0.5894463138451503,1.5780299490871597,-0.4846053190168166,0.7655345879791715,0.2902640772661396,0.9128313287628351,2.28210985436224,-0.5910661333664532,-0.81436148741037,0.239979880458875,-0.9980818996779411,-0.4432920582605046,2.330469864338608,1.621646454036202,1.8261894212990522,-0.24138413213874702,2.283294216244932,1.165460418618139,1.3756298440320942,0.13992006028933301,1.7802059834838841,0.7787660352807522,-1.2621491291700302,-0.8800532110689804,0.22339812395677106,1.1654604186018955,1.375629844387913,0.13992006028933301,1.7802059837595774,-0.482146192713988,-0.9489005443056601,-0.709869076909651,0.8788543913345847,-0.4978461193920449,-0.5013813086283951,1.5045684504539796,0.27627745753746497,0.16453361818171988,2.0249942828063885,0.7007999599742668,-0.5508258266331253,-1.4639261092245794,-0.8825136707059198,1.69575423295831,-0.7568384259232921,-1.7489068669055248,-0.24982069744625424,-0.48427757212837785,-0.31722438174929896,-0.3218135278047428,-0.7724151616510377,0.35008586045968737,1.2158251243668163,-0.7733483082810781,0.3102958266815144,-1.6019610358988712,-1.1773489148618776,-0.5026396345293049,-1.51086327231034,-1.688236775317755,-0.012751428327217543,0.20320916126179572,-0.5556837236905494,1.0
0.0036444643513118494,1.3096535829165843,-0.6272498733719556,-0.3841991948082058,-0.22994459989778154,-3.462015438852491,-0.33726480493128574,-0.6515528723809085,-0.4719680028363363,-0.6305888959413897,0.28737577470507525,-0.4467410793723504,0.5856645798075424,1.857683344068877,-1.7443125711732497,1.1195775319458665,0.6535713040465877,1.0353629076057698,0.9545550469874009,-0.38476173509179284,-0.3909102524302642,0.4989856468452059,-0.35860335458317716,-0.17600935738475545,0.9036901099945303,-0.7110990742340286,-0.2917648302895107,1.4441944328861622,0.31691683462031744,-0.6376609040568817,-0.5789048429514841,1.5797968750266265,0.022954346092856435,1.30533505983724,1.7143098334379203,-1.3649162373382622,0.22987497428012543,-0.6376609043249465,-0.5789048426878752,1.5797968750266265,0.02295434764647875,-0.166189961912581,-0.9079125299317053,-0.7437677053413415,-0.6217266950691142,-0.5344638941156435,0.3608224014116323,-0.4294198835857924,-0.5244117213456461,-1.7153950946145182,-1.5848650391796193,-1.1101818695427217,-1.4313230914600221,-0.7762960678355542,-1.1103765506357361,-1.8259365197962762,0.36203536646354767,2.2538065623743084,0.9740169509030305,0.3523466617558382,-1.3072701022849536,0.8253869952758135,-0.8252022934388359,0.23420487959313938,-1.3003199816842173,0.8439778611159471,-0.6711423291701317,-1.0410869969846135,-0.5540548467245836,-0.4049339247099136,-1.076097371396345,-1.0799731253777016,1.3656619586253962,1.4605351946849523,1.2528176288449946,0.0
0.4794115497189906,1.3249451407106039,-0.6412511126777234,-0.32871525579693456,-0.2704548763122167,-0.8238242784701834,-0.3076159919103382,-0.5073236097351309,-0.4359411627941355,-0.4960143201713184,-0.02151194633730133,-0.08788428978169065,0.21407855696980674,1.3442822563846764,-1.3831414597147362,1.1195775319458665,0.6535713040465877,1.0353629076057698,0.014945219165411359,-0.24909416687975314,-0.32057825358471176,-0.7553330844272393,-0.49644059006166386,-0.6275916823300645,0.07523734705727946,-0.8435323676823063,-1.0069933779570237,0.23178996189284773,-0.8518266816996924,-0.6236458189866655,-0.7208965209943884,-0.4176798764973127,-1.1536674879066544,-1.9474644046554388,-0.4526364435632145,1.1889867786253598,0.08635298509239615,-0.6236458190829387,-0.7208965216219376,-0.4176798764973127,-1.1536674880541402,0.23240098873517015,-0.4081577416553936,-0.5012606733456699,0.9843099301052813,-0.34730637886169496,-0.013686483866951227,-0.6401130738362196,-0.0008647360138800367,0.20306253464466534,-0.13643200394741337,-0.9853717341632304,-1.0303500250740107,-0.012351044683330273,-0.8753456214092488,-1.9649999962618523,1.1374612381603153,1.5435612645963492,0.4397964450384924,-0.5138687225722386,-0.9723300122481412,-0.7534019084741658,-1.0690878706489781,0.08892673638860207,-1.492507497462701,0.2779930252632713,-1.305310955988335,-0.7195107253701856,0.28750935132262406,-0.035695868591436856,-0.8750090106126318,-0.5960574282167697,1.2393073981547396,1.3300579648014168,1.9490730228523432,0.0
-0.3056912779665013,0.9648732678851415,-0.4116509077041011,-0.34347703773571314,-0.15838906492275123,-3.4593955866574735,-0.33204257081964156,-0.665731789376264,-0.33624424695408295,-0.647590907641761,0.5410675254325163,-0.6851345382051021,1.0927180461670623,2.269790796719226,-0.6144485015661287,0.8821155434410585,0.3402739919076865,1.0353629076057698,-0.10612396719936,-0.22171754028323065,0.023749837975817537,1.915884770687878,0.5096317432284129,-0.45712257106153614,-0.13121750747776395,-0.9968334553179493,-1.1845444712001625,-1.002152575412104,-1.3975761684870533,-1.1805906059100446,-1.3014026900622473,-0.5373745082321331,-1.5601622616218846,-2.619399679417732,-1.3316264749578872,2.337075674863922,0.0765141207292428,-1.1805906054191035,-1.3014026901856868,-0.5373745082321331,-1.5601622617101507,0.32491811046511065,-0.5663414377770709,-0.6610862834032157,-0.940767233871308,-0.4761466973336161,1.3803164736150098,-1.5064146202679063,-2.1946664492742065,-0.22591332135679998,-2.1422538079529954,-1.23114586657561,-0.8992165027866308,0.5506177222177969,-0.5473113204818568,-0.6643882180531926,0.17090886434292932,0.6076663834007375,1.0971393060364032,-0.0008051359994844914,-0.9738051629305704,-0.9440062244847468,-0.7507942539673949,0.12826014143401296,-1.1368031117189619,-0.19069036005200932,-0.974125494079125,-1.6004298972296445,-0.6909490489759693,-0.43921117322461195,-1.5553801115960533,-1.6112565055803048,0.21124074705258217,0.26844777620356325,0.14233434220036234,3.0
-0.09830562537033362,1.132667081994751,-0.3429927796412437,-0.3465311995161501,-0.16368947492090163,-3.4593955866574735,-0.284452856737723,-0.6613462173753749,-0.47053297147197193,-0.6397711670687679,0.13461257982271937,-0.27136456650414276,0.7912657034316694,1.6249843235233241,0.11218789984420857,0.6199114262241147,-0.00566703921510575,1.0353629076057698,1.0031964642340738,-0.46224630685014567,-0.49326278550124025,0.8279837928076026,-0.48426729235611216,-0.21106809913620753,1.0582874125542276,1.2398179080746698,1.7057711551090968,-0.19839789409403732,1.808072355442399,0.8966122428512813,1.6160243372959462,-0.16626309880493667,1.6726120860940525,0.7474160594365484,-1.9458689456519795,0.2983044113634418,0.22580674575399154,0.8966122437666211,1.6160243370658867,-0.16626309880493667,1.6726120880367472,0.4110377840974596,-0.5912985263046135,-0.42204787779736835,2.3325121184465156,-0.2062601354819076,-0.8038277105525587,0.11245649365129157,-0.9630422475660104,-0.6363062063718753,-1.1656288987841255,0.7900095746165838,-0.22293859951724865,-1.8156158734620964,-0.6038819889185505,0.28339696024403394,-0.01356448874132026,-0.434728123058022,0.9335495873823958,-0.33812150606058594,-0.054318658207408735,0.3245815645909943,-0.5912890085307367,0.9415712125528933,1.2954931448011853,0.9434331371631831,2.272770159414778,-1.6451503332951418,-0.892426530252208,-0.4765355662529796,-1.5994594846397372,-1.6676536990899726,-0.0070080392149152355,0.04307801549563872,-0.5530397158652051,1.0
0.585718480881732,1.091423365607495,-0.11232785154722362,-0.3541666039672425,-0.23789521489500715,-3.467255143242525,-0.20325553925990097,-0.14559635522571598,-0.3343560477904456,-0.11095133741029288,0.07024552575701205,-0.2117150953590284,0.6180902721805166,1.5679359943115,0.3161128236738769,0.9191226078904854,0.3890995487690609,1.0353629076057698,1.6696914989818228,-0.4868408598190238,-0.698365135444945,-0.48986072077377096,-1.012410885518851,-0.6568609070950382,1.721274674985294,0.07786784414416965,0.5151156503121604,0.20994211878296085,0.5889519634189405,-0.19170340066450864,0.5700750412879947,0.9286794628921156,1.0982381588890073,-0.3645256311393511,0.2579960082078604,0.519718623307249,0.22356215704069485,-0.19170340037265168,0.5700750408057381,0.9286794628921156,1.098238158075217,1.4669335682839961,-0.8641245276884261,-0.7264502357709574,0.0718432783850334,-0.48428398060552685,-1.0816563791202307,-0.3532228927008762,-0.689975694413047,-0.2425160472365899,-0.5420953895258771,-0.5700995154070715,-0.6216894352532323,0.6956619047611029,-0.12484040028382189,-0.3972910638350651,-0.5174118164832838,-0.5477218649035108,0.626109899796376,1.3483445311726288,-0.635394661152155,1.67406736388862,0.5926537589461616,-0.5733302827864241,-0.30013008969318955,-1.1369090788151528,-1.0641021529653418,-1.6109764437254364,-1.1771882652592383,-0.5026337223924572,-1.5154927737167345,-1.6978167604116403,-0.24823038193162245,-0.20601487791838266,-0.6182585755570326,2.0
-0.14919353340233443,1.2001340280062134,-0.5058740688429494,-0.38267211391798733,-0.23713801346669994,-3.4593955866574735,-0.30247798738113996,-0.6694908510913117,-0.4757292955703019,-0.6484301474759838,0.1759549865598452,-0.32862244743582564,0.5089667747908316,1.7101608055120987,-1.2754735563335027,1.0787042888886165,0.5996448745204696,1.0353629076057698,1.181602882428805,-0.459341776144325,-0.4739822039404221,3.017646197874654,0.0059615506612103715,-0.6343461188142892,1.17593437842965,0.6656477207202492,0.6458834592090434,-0.40722796463248045,0.6510834434531939,0.18223625468878535,0.0357406178100841,0.42467959635694474,0.7557463094457236,0.8428535157410073,-0.10456670288154758,-0.5392379178514655,0.2098238783592206,0.18223625481441033,0.03574061855221436,0.42467959635694474,0.7557463092909711,0.8730294968573008,-0.9666624478009941,-0.7699798785326555,0.3220297041036299,-0.5168331136931701,-0.43293977219227586,0.4103788931798806,-0.6436226102101711,-2.1956207418113425,-1.3791284528658667,-0.4441415691598763,-1.0817762295018303,-1.381841071390079,-0.9793572733002813,-0.3581418877793547,0.49950772050894504,0.7680458144566651,0.5977430661844441,-0.7773840686939494,-0.9179348105730585,-0.3504286971637851,-1.229711007952958,-0.3880398474448944,-0.4284516044295628,-0.1384876833806939,-0.5284446551131398,-1.4186151138987066,-0.9350365078419224,-0.4824270322382443,-1.3421076002843526,-1.4345694199891252,0.2629312490633049,0.32182482479228186,-0.38646722286851026,2.0
-0.80324257053966,1.0482546275238114,-0.3523010254131414,-0.3821630869545812,-0.24546722917807914,-3.462015438852491,-0.3354959836999224,-0.4865498476256568,-0.434808243295953,-0.47133079563535524,0.15377071895052796,-0.30935363475509325,0.48100078380856987,1.6599462743819369,-1.1857042360558883,1.1502699016830402,0.6940655195729402,1.0353629076057698,-0.9231918654877116,-0.022165063647179697,0.23335831700730644,0.0029577177229393936,0.4805933559932947,1.347276889724207,-0.9476930497363015,-1.2706039835335199,-0.4245307726364185,0.7122168020524332,-0.8081667227567035,-0.9190260391207749,0.27121518334336486,2.28815383825348,0.6509719649150203,-1.6205887560770333,-1.5659131343161063,0.7904112152044162,0.11560326616269474,-0.9190260393839168,0.27121518302223324,2.28815383825348,0.6509719649650156,1.3863536181763068,-0.8634577148875526,-0.7428461900315518,-0.12864414572391522,-0.5154768998145183,1.561642098195738,-2.0310796287458612,-1.9677517054916622,1.2146267753137319,-1.574924369519572,-1.2664026532099544,1.0019293375606273,5.849865277623637,3.1481922457149385,-1.734314480316616,-0.6406239446879327,1.1787875492333248,0.48354261565807705,1.629006182382208,0.6799915675946452,5.823213249953461,5.5446067106281065,-0.2578587090526026,-1.6383256943037827,-0.8317459868490459,-1.3779606536712676,-1.5367661311193486,-1.0183752620019761,-0.49192923119436116,-1.4614575317667604,-1.5853550581560745,-0.40330188796379157,-0.36614602368453947,-0.34240042577943747,2.0
-0.30638837259707663,1.2122883614114968,-0.5154359547322079,-0.2798486673099433,-0.1901915249116536,-3.451536030072422,-0.29397079955410677,-0.6637533358420283,-0.46547259771342375,-0.6457643268260997,0.38681257346513276,-0.5298904813014944,0.6565229421970215,1.8540558185633866,-0.991202785120751,0.998842427848516,0.4942785101443566,1.0353629076057698,-0.9136336737977065,-0.0718483035112098,0.14131717871286267,0.253048507263935,0.46182618869723585,2.330529857927775,-0.9173866384464803,-0.0447038390568362,-0.29215020271334036,0.0857324470709109,0.07846628962399362,-0.5876376969097731,-0.7865827236961037,0.12952469937793362,-0.6084517846426679,0.15825062681449345,-0.7534069645111358,-0.5931104024300355,0.20147083004602973,-0.5876376965615558,-0.7865827236049733,0.12952469937793362,-0.6084517845391624,0.1645742141991068,-0.5725050479978294,-0.5660523137332315,-0.015334720329370189,-0.415117072794285,-0.6497252597328769,-1.6468617818657432,-1.482531869688401,1.8445160148811355,-0.6016033017071599,-0.2679346419038586,0.11978742658657375,-0.2190805050937695,0.20431077345809068,-0.2032437742046514,-0.15376388487426382,-0.25493435305726536,-1.4288863851333182,0.6990814101794409,-0.31706335700352084,1.385160586343889,1.0987332805754657,0.3355305579598022,2.268447824672113,0.5071962486508598,1.5266545987336861,-0.5742122995475987,1.3918299475433435,0.8625011260991796,-1.0909197943341014,-0.2189911507510186,1.7504690291496674,2.0536135123373844,0.5301221565842023,0.0
-0.1777744132559239,1.0313975511554991,-0.37413040849005236,-0.342968010772307,-0.2057141541919512,-3.4593955866574735,-0.3119117006150778,-0.6634235935863224,-0.44889420905668775,-0.6504739433075615,0.029122253265051464,-0.1715815433550282,0.44851062570887673,1.337755295481957,-0.11089863470108355,0.7476629843957694,0.33606708638923977,0.8318023875702913,1.4187891607001637,-0.5375106681853539,-0.699520017562816,0.8802424611779872,-0.7601953736819512,-0.3596657017891511,1.4070421233012367,2.32130992614187,2.801287112142249,-0.08033778610652949,2.501594010959876,1.9684424368437805,2.551947634821094,-0.5769794512054134,2.214085878692073,-0.13759370376849417,0.2831254560062872,0.08702491235431543,0.1937532707481305,1.9684424375032572,2.551947634224328,-0.5769794512054134,2.214085879635615,0.4757612534289699,-0.8109297686246798,-0.7016892803345605,-0.04926214000355704,-0.4964899055133931,-1.017395256090166,1.2564780645160687,0.9577343981581622,-0.7789714408408626,1.4490122205073452,0.48182480500543884,0.3141213225888202,0.9988299969809589,0.8518025634689183,-0.11795081967568721,0.981753769635344,0.09510558079816168,0.48694271428973757,1.0205030012740872,0.2152434974420975,1.3259317359666731,1.2070981344916965,-0.8491002826570562,1.604518141469401,-3.999854509313172,-0.15803099630976938,-1.7047386938685503,-1.2430847132527685,-0.5042247943757128,-1.6018570237520084,-1.7899728202093355,-0.2712039383808327,-0.03995294897570181,-0.5574463955741124,1.0
0.7477929824905017,1.1547342340448503,-0.25133385062739166,-0.3821630869545812,-0.20419975133533677,-3.4593955866574735,-0.19954943763228256,-0.3533339763204575,-0.39779953968866083,-0.35186253688129343,-0.18893244010207344,0.0728740202061576,0.5482706611232425,1.196491523053527,0.18031935309994118,0.2496250388215658,-0.37338845126065584,0.8833056463536493,0.6689350167737432,-0.47108989108470956,-0.6807824009429152,-0.04346733425821207,-0.8966377521316767,-0.6008955762257477,0.5956756194753735,2.830598295157533,3.98608948768153,-0.3663477266942967,2.504952469340106,1.88880673688267,3.1277160876609273,-0.07819570858192441,2.6193733516648647,0.09169602559156452,-1.2653738106877523,-0.882171958510918,-0.0006300945980926762,1.8888067371748964,3.1277160877096075,-0.07819570858192441,2.619373351235589,0.26217378498493843,0.07702700179100092,-0.0766177835775328,1.132686168690843,-0.07470738925268286,-1.1251770106830643,0.4808567488020085,-1.4943007687083532,-0.8013952112094931,-1.1371839449539007,0.8193758454400747,1.5226192901912656,0.8048853934951554,1.2967697236566977,1.2909542909409806,-1.5550413651319541,-1.8634969889753312,-10.319204744791174,-0.3910958004658505,1.1748763234223227,-2.3283852964134977,-0.5625000421580549,-0.5375141181722308,2.9183427863796285,-1.5789873419133762,0.7810236998002086,-1.6248219895948437,-1.05977536210348,-0.4956554839840855,-1.5401020290161667,-1.6876697543242376,0.42948953332007916,0.4938175369114874,1.0853637999065184,3.0
-0.22101170771736023,1.1178392526066903,-0.3528373002986045,-0.3506034152233994,-0.15838906492275123,-3.4593955866574735,-0.31587049099003384,-0.6691940830611763,-0.46271582693451324,-0.6517792080850232,-0.2602872185270636,0.14515087873907756,0.6839714869855269,1.2563567824569983,0.5912143104281335,0.07220051102351874,-0.7282936736585799,1.0353629076057698,0.29398086963291165,-0.3246158634366989,-0.3523951546270254,-0.49969034541205853,-0.5453873912527364,-0.8028853910873247,0.21402088289918278,0.16045008628577773,1.0210614683139312,-0.22901263331403518,0.3471429600423867,-0.4221121667754274,0.2818442346219631,0.6564973592989468,0.2587554640776193,1.1157098905620664,0.1168381387420308,-0.0768511395962205,0.13230345353483366,-0.4221121669653144,0.28184423457739805,0.6564973592989468,0.2587554627565617,0.23240098873517015,-0.7562323328452382,-0.7680131915274736,-1.2952308161225987,-0.5453136051448579,-0.6034569691502052,-0.7188388891088349,-1.751234199949161,-0.061958616395983164,-1.9863288500419936,-0.3755339579726012,-0.08334727428830234,0.36230989618646403,-0.22911527806631354,0.5989103880428702,-1.1911672493903727,0.6603657915693354,-0.6010573621345543,-0.8657648180506771,-0.28977647399589446,-1.8207915956147744,-1.3056160253129947,1.7533636702863717,0.8977680278391358,2.0965603331572384,1.6218158380082066,-1.6534846641967946,-1.2180057664857764,-0.5038163234667118,-1.5553646453788328,-1.7428439835071816,-0.2712039383808327,-0.22973801062447993,0.43317520298824214,3.0
0.726880143573241,0.3898711999632545,-0.008651970846654217,-0.27577645160269404,-0.20003514347964718,0.025007832715385266,-0.2812521326047798,0.09181806888256001,-0.141759733099435,0.15266870463379373,-0.6461508836567762,0.5976166597449644,-0.062108302629727226,0.4495471680832548,0.38763379669541925,-0.027756627184579302,-0.12623632831849615,0.1338805955766877,2.0495801404074045,-0.550046933335572,-0.7076849844778399,1.3943628691380665,-0.8039431623112777,-0.4577658507267004,2.0991639573904157,0.9700843621730084,1.7964742583022402,1.5913616936637596,3.33281246006678,1.2394293555523161,1.6574123135154875,-0.21269953437010328,2.0838794011530104,1.374012189235707,-0.6882976055866531,-1.450121514459008,0.20071314155991693,1.2394293552496232,1.6574123134752898,-0.21269953437010328,2.0838793998041747,-0.9783595171344988,-0.6236962383036648,-0.903704140632926,-1.3986814761200668,-0.572437882717894,0.3681520973288914,0.8200694624303776,1.2014358227988113,1.0255443011663512,2.805796935491305,1.6473312787576568,1.621024278323504,-0.24777358769560381,1.5725536903110149,0.44281194317264133,0.40129031548790456,-0.5827889466180308,0.7886917180141055,1.21945853487872,1.7569991627550496,-0.16867578226353439,1.22009521065145,1.0184881848409109,0.34220442821988256,0.28554511294658946,0.7858800097567052,-0.53022556291473,-0.5503162033884884,-0.4038965824756213,-0.5212799601671301,-0.5874615465483337,-0.16782293435938664,-0.12298391344704214,-0.62266525526594,1.0
-0.17080346695017037,0.592746938392034,0.06838047246643833,-0.20298559583561337,-0.10538496494124729,0.5306393063537024,-0.2852109229797359,-0.6717001242045414,-0.3743858700595576,-0.6511532339027912,-1.1624876347012236,1.2548943299868862,-0.6410909311848443,-0.4925557563500163,0.12708866477357503,-0.998195778822693,-1.654598759857052,0.33420998843367683,1.4884242782802704,-0.44708743443390636,-0.6053392236289854,-0.4641806971195803,-0.9223792045715413,-0.9270383664640265,1.4347495699462567,-0.5163130666846482,-1.0281205937259852,-1.2874876408046863,-1.068447247224522,-0.0888826459106734,-0.8230067900251955,-1.764335965662568,-1.15396130431373,-1.661942258411267,-0.8237784011087919,0.9815135766819997,0.21161387449231317,-0.08888264514236993,-0.8230067898747615,-1.764335965662568,-1.1539613045347445,-0.9864609548275319,-1.3011029437383728,-0.6123212254666487,-0.05683192502426547,-0.6375361488931804,-0.021093335373476567,0.04880507786821787,-0.03238197236810735,-1.5073760117773596,-0.7390278126270642,0.4085247388118387,-0.32353327934080783,-1.6234072638742567,-0.7678957406119219,-1.6010756215904798,-0.6872529150826295,1.0822477405631743,-0.7923963651803843,0.5647619453346149,-0.053824985085027637,0.17529351480540303,-0.322772788677488,-0.1052872141393898,-0.48020470222580386,-0.12476452894844413,-0.32872529113656246,-0.8478287445686006,-1.0215949386931185,-0.4922426856183108,-0.7322515924220558,-1.0091510146444356,-1.610562279369789,-1.612796647389952,-1.1188573904888985,0.0
0.040241932456517915,0.6031216956874654,0.1698093938878147,-0.32973330972374687,-0.2606112577442231,-0.24745679556640218,-0.33456945829301776,-0.6395502542732124,-0.39402314136138605,-0.6303914277451019,-0.31842865563634704,0.19923566992732558,0.2880817104901071,1.0561593777152196,0.5002777731643508,0.2998911757604795,-0.06740173548996556,0.5951041005346123,0.014945219165411359,-0.2303878295249725,0.4478202741349076,2.9184365683438362,1.2421852936968745,-0.9286465656269371,-0.06354618878462386,-1.3092120832121783,-1.2188248045204686,0.061199354268869466,-1.3119354797911906,-0.9704711510128938,-0.4947741088435823,1.5439140795487012,-0.3112685206549786,-1.2123839350983008,0.6579554651896583,0.9980880637029668,0.22342589256803538,-0.9704711512542296,-0.49477410804001837,1.5439140795487012,-0.31126852018526346,-0.9585109863013199,-1.0065782892015434,0.05633901666998404,-0.21343397648144113,-0.6104118713201444,1.3473223230905258,-2.051633250043635,-0.9757960977351259,1.7228261080952831,-1.7942871388907493,-1.2540201747264574,-0.5287836801346852,1.2334271646777892,-0.09706121410385127,-1.2556891232849647,-0.0630285080716905,1.1693985229148713,0.6445376257697343,1.0464843808768445,-0.6358351144640734,2.4170038053672696,0.6842057500927378,0.045192532680412824,-1.871196224375568,1.2460402914824367,-1.440575115082039,-0.7643601467853012,-0.6210389762962332,-0.4226077150851775,-0.6812836034048909,-0.8261850974629396,-1.1212255270016112,-1.513752568341996,-0.5283623094953244,0.0
-0.022496584295263924,0.520932480897042,0.2946907448903601,-0.40812346208829525,-0.381763486273375,-0.4098876316574678,-0.3392020853275408,-0.6528058929525912,-0.3845821455431993,-0.6326623120024105,-0.7704168795679897,0.7314089769566052,-0.9511305251393528,-0.5299945007946774,-0.43491725572453044,-0.3489098379402717,-0.2201852378323368,-0.2832231694002706,-0.45203592375706253,-0.12015103719648315,0.14429906457235164,2.7180269932836074,1.030801051247346,-0.9164242519888163,-0.38928606783999437,-1.9747692292416086,-2.1444242635996047,2.461182945027266,-1.6679320680955614,-1.7345824103666412,-1.9895793488084688,0.6043004584891413,-2.0193943635637077,-0.8666685326364235,1.998636705576732,1.217863186568512,0.22309459828691863,-1.7345824103250058,-1.9895793487958604,0.6043004584891413,-2.0193943635398917,-0.11798302738427387,3.5189063063568473,1.7227240001773134,0.11026502892926926,0.7620765738754786,1.0428762759893497,-1.8720867711762244,-2.0867872468073165,0.2935908896782044,-2.1318689947139133,-1.7717965160388887,-1.590371058680172,0.48941161290916063,-1.2384927344864354,-0.883341142353708,-0.2565563252864179,0.42327672399601457,0.36016229239749775,-0.25696397589610687,-1.6045554156695803,-1.2619113972138845,-1.675602745483446,0.20508456500501926,-2.120859226304302,1.2328181834761232,-1.5473788190006035,-0.0686052481851567,0.9861933175528659,0.4780186830206299,-0.6619564894481503,0.0018154777738021992,0.21124074705258217,0.26844777620356325,0.14233434220036234,3.0
-0.06432226212978512,0.6221159986113349,-0.05394069876240455,-0.2518521843226046,-0.1811051077719672,-0.030009063379975665,-0.28790626961800386,-0.652410202245744,-0.4174368109904893,-0.6314775028246843,-0.6612903079348034,0.6139903445633511,-0.05540445992040189,0.42355069143026286,0.31281746969814456,-0.1668274318128111,-0.7225597962848496,0.6166649649045839,1.293858598829741,-0.4501931942602158,-0.6257954726906128,0.15516288369507172,-0.6179199567483155,-0.07437117028880273,1.2895933195024203,0.07156092532279953,0.2629712847650898,-0.845411441374044,-0.2557003192088828,0.09781960023602441,0.4340506625694868,-0.22329404984813056,0.4161389944796403,0.7451197202342521,-0.6612249163868279,-0.5873942284869131,0.2276916562310779,0.09781960086758751,0.4340506623247892,-0.22329404984813056,0.41613899404421073,-1.027980844217446,-0.8298634964794456,-0.6426509518006503,-0.3008045590769659,-0.5941373047763228,0.5193752965897125,-1.1545324761751274,-1.4266392510362766,0.4593462436195486,-1.390944515045487,0.2438321591487631,0.4316793619516464,-0.9113762817791758,-0.06972136685214624,-0.3829095915804444,0.7739457042444192,0.2503503270065588,0.9876803168449522,1.147718845252029,0.37662387944594156,0.18778416169568332,0.20504650947629235,-0.44973961118985856,0.5240753536698728,-0.03518281558477984,0.7192473992809382,-0.7162403875888268,-0.8803015274765856,-0.4747313446747023,-0.6186057002833448,-0.8591761063850099,-1.2762970330337802,-1.2676250665162365,-1.0880106325265477,1.0
-0.7370185806350013,0.5900723028384715,-0.02354363067608031,-0.30224585369981427,-0.22956599918362797,-0.05096788094011316,-0.30483641568962444,-0.44368335438388473,-0.3513498402631818,-0.42196374656342883,-0.5120911253016792,0.43512436824410594,0.11646106517106453,0.7035008629130817,0.4894363181825913,-0.295545191096758,-0.722152046622148,0.394715579452423,0.392130036563272,-0.35644712081013197,-0.4013755426039165,2.3141975033393223,0.10169946490799736,-0.2702498283313192,0.3899209521832757,0.508054826114021,0.9026095984897345,0.29825100690121936,1.3798689119630851,0.23573630405446028,0.6104500634183336,0.3812780316909731,0.7591862742974685,0.3926750879324146,-1.5136886613056244,-0.7385503115316818,0.2168361217681273,0.2357363045791161,0.6104500632173969,0.3812780316909731,0.7591862737714642,-1.0256728836168847,-1.0507569873820677,-0.5458961055513636,-0.8810490570649411,-0.6144805129560998,0.006359382730429737,-1.1692781700868415,-0.227578830202645,2.0919455250612806,0.5657032092755079,0.9950289493457105,1.610874370623623,-0.4240892111695762,1.123778944813951,1.2222452755053754,0.10357511540219422,-0.4518875360317821,0.8459924857673925,1.037821757541083,1.5378995051983548,-0.2184285023053248,1.6592695877756052,0.16060422250002976,0.8167303376683432,-0.312300468900143,0.34460021543021335,-0.5504742067078128,-0.978327000841189,-0.4876967202272014,-0.42423466215350786,-0.7180506438601681,-0.5756035613328682,-0.544069518980269,-0.7654416778345355,2.0
0.0036444643513118494,0.5288982694476922,-0.07674652858032968,-0.3063180694070636,-0.22350838775717036,-0.3443913267820381,-0.30854251731724286,-0.6270200485563867,-0.2943262255213336,-0.6117306831959138,-0.4224847273485718,0.32169682427560314,0.24721878579910816,0.7905764389817356,0.7022707807825702,-0.09367367705205479,-0.4469184595572916,0.40115424562308355,1.3620138578319818,-0.4189533067562966,-0.5854944263234013,-0.7160352480579054,-0.8427455487477238,0.6985293474060531,1.475036842336857,-1.084085917356062,-0.5651364257921432,1.0525711771921067,0.06839091448330387,-1.1633745381810487,-0.7236935327599792,2.340895737322165,0.05782155181828155,0.3585627104904431,0.06144783823037365,-0.3061819785275506,0.21746003645898934,-1.1633745380375475,-0.723693533303926,2.340895737322165,0.0578215520292722,-1.0262697716730684,-0.7709585655720796,-0.28976202612010327,-0.532568359047428,-0.5887124492617156,2.5393783106380097,-1.4346633954437977,-1.3049876207961262,1.475208373419175,0.1640689918357857,-1.1312737251262286,-0.5071291023663711,1.6814811116286277,0.16455701683661159,-0.9754564662484552,-0.2956101180975205,0.6392040119803037,0.7883510999043002,0.41038075051248846,-0.6554616388569471,-0.30425770620034953,0.8512364228335879,0.17944281847058707,-0.7569659353470372,0.07877454356978764,0.06747801635394356,-0.33639704781728036,-0.03751933745506156,-0.21062262419335287,-0.3304008153625057,-0.20961833841874025,0.42948953332007916,0.32182482479228186,-0.3071469881081793,2.0
0.10298044920829968,0.6207063215853201,-0.2883414004341975,-0.30530001548025126,-0.21517917204579118,-0.27103546532155687,-0.32092426593678625,-0.6131708738167373,-0.43367532379777063,-0.5993889209279322,-0.692435175802354,0.6366682289657133,0.2418369254348714,0.7065277526811752,0.6562871561197393,-0.1482999188438257,-0.7282936736585799,0.6557914051470508,0.4298904657318684,-0.28936691060198294,-0.41740057776745826,-0.2698636212286377,-0.5745525836722875,-0.7552826958651696,0.3982680014154537,-1.4708652088774212,-1.3206300317302824,0.3396815655203484,-1.217898645144753,-1.0566309249897685,-0.7606071020220893,1.7731305201082233,-0.3129512405291237,-3.015187694353446,1.2371769613078236,3.7181339101217272,0.20250038818049784,-1.0566309252283006,-0.7606071015361786,1.7731305201082233,-0.31295124247011336,-1.0006035584616462,-1.2127455473773239,-0.0520623222889407,-0.7098546811198092,-0.6293988656212697,2.7349255551679765,-1.9267038240459844,-1.908851601448061,2.019053344226294,-0.9237298543732778,-1.3859944940989744,-0.7665064897417867,1.2515792391461344,-0.1387697027795496,-1.3392399466939346,-2.5768619602932366,-0.3523140945120548,-0.22248215842214134,0.5800533553175542,-0.8956928292531706,1.0172797431882286,0.6295241537612845,0.09688609775072954,-1.2718019219763252,-1.3040172456865946,-0.8959723173518858,-0.5092323664914323,-0.21063787131833678,-0.2871915615903909,-0.4658170397745269,-0.45362853221370947,0.3490820857478434,0.1557628958496008,0.15996106103599136,2.0
-0.16662089916671824,0.6909325529851008,0.04298234786208178,-0.288502125687848,-0.21101456419010156,-0.08502595947533659,-0.29961418157798025,-0.6713176231879225,-0.43556352296140793,-0.6503949560290464,-0.7771468141212728,0.7578963154876931,-0.26811265333109363,0.09325570607566307,0.20381634401167653,-0.4228284292967847,-0.8314179234161463,0.31003231201043335,-0.49785208415039406,-0.19202709841550078,-0.10798323155515153,0.7992909221432254,0.2279974286030965,0.7760445470583461,-0.5037933128880415,0.40002861677083634,0.1567371607003605,-1.255274438297793,-0.42026477984014854,0.46108030746312806,0.4565064296686738,-1.3598342037507798,-0.031826107306916866,0.30198585949492956,-0.1038559608007274,-0.3690729893466444,-0.14524466094240795,0.461080307670196,0.4565064291404606,-1.3598342037507798,-0.031826107120131515,-0.9001484070472303,0.01934925792595419,-0.6165431362906378,-1.695457236985783,-0.46800941406170526,-0.4469259342153891,-1.0158249455850796,0.8170555025467946,1.2583799216720783,-0.18133701543436012,0.9667526350982705,1.0972523527005202,-1.0554027655016036,0.27607550147826476,0.25478641767717247,-0.42637615015435254,0.3185868359273502,0.27814273961153246,0.6148911576926467,0.7871310082226494,0.6293927828459325,1.2502764324989168,-0.7378283429361071,3.1949047600347362,-0.1511037124366112,1.949362545636647,-0.464793410298165,0.9699631758299165,0.46395303857383396,-0.5863971111260724,-0.253426581845942,0.01596551723429516,0.06680114820173619,-0.36884050403288116,0.0
-0.7091347954119872,0.5562242680126851,0.22317007603689837,-0.28086672123675566,-0.203063949192876,-0.18982004727602408,-0.28504246381484416,-0.4928149504840696,-0.37778462855410483,-0.46145738582096996,-0.8843835003974941,0.8918866987728873,-0.2851343772022536,0.10929168769158538,0.2761925564565892,-0.2996061818304719,-0.7058503955236375,0.3675982268868844,0.7688614035950632,-0.49548361918508255,-0.677734067551581,-0.5471957042093865,-0.9848941604969268,-0.5198423384150512,0.7605349447081422,3.1700703597076068,2.410783575766576,-1.597016318745687,1.7073186040355017,3.4979814141479006,2.7896192426624142,-2.070709398658206,1.489432415021514,-1.0943323083236767,-0.02047071639392187,0.8691325910764571,0.2232552176776899,3.4979814142918344,2.7896192425117747,-2.070709398658206,1.4894324149381764,-0.9111703866394812,-0.8887684273868115,-0.7548446714564295,-1.4593710141603633,-0.5697254549605903,-0.34111758795222635,1.3404498923222476,1.3459672330131238,-0.501466318853504,1.8143084972598074,2.1644625373394244,1.8401906232133691,-0.7272794621652079,0.6453355269341061,-1.1300969581297162,1.151048872798707,0.13183351792363043,0.9340787619458272,1.4965615228419558,2.0454940926033713,0.679689061595172,1.7953524297166064,-1.7924174992306587,0.8039749761487397,-1.1250867432096925,0.007414418753250852,-0.7726533830960173,-0.6862492856134333,-0.43815398927849925,-0.6870206481884336,-0.8258201508613275,-1.5439389656670792,-1.732005389238091,-1.1787882345300373,1.0
1.5934559062072275,0.6824182323866358,0.1302802105611598,-0.3460221725527439,-0.3007429334445047,-0.12170389020557722,-0.327073025455335,0.49080619828674593,0.10030739967887436,0.4143140647150034,-0.48743483326583226,0.40487672074334424,-0.00699193077030321,0.6718528100420039,0.056251630528193056,0.6785766889692094,0.07173342917012586,1.0353629076057698,-0.5082466189212546,-0.18598213775281403,0.29693129872226764,3.1662056433193198,1.0089905595248991,-0.4555143718986255,-0.4452009253608151,0.2471518046563216,0.03769202599208902,-1.716627492670776,-0.8064874935665886,0.6254789312390117,1.8234003927327103,0.19442138598435274,1.139413684401014,0.6397831655783355,-0.22347336859741415,-0.8116353929050528,0.10813339740756348,0.6254789309938052,1.823400392599263,0.19442138598435274,1.13941368257618,0.03887779078207655,6.025197837865263,9.103133022783114,1.6822079610547858,5.139934974163493,1.0013992501879927,-1.1697562250947025,0.8628444919005199,3.8817017218167114,2.396368621050468,0.23609175952732012,2.1296650226580005,0.40584053679078724,1.198431038004219,0.009131587190065443,0.589851160095193,-0.09512123050967414,0.5177729467313906,1.7999823353835467,1.9013554829675017,1.0703045208383637,2.6292826728304974,0.7099832135623169,-0.6219330238951041,-0.05479986422749146,-0.5363040719593737,-0.3925159114692543,-0.1928416157536749,-0.2798525392384062,-0.44288800837492104,-0.45095610453880497,0.04468246279580786,0.4938175369114874,0.6799492666870494,3.0
0.8662990696883118,0.599801601648274,0.10352530004388373,-0.26865007411500785,-0.1712614892039736,0.01190857174029933,-0.3090478948119181,-0.27749325750809156,-0.14364793226307235,-0.27188791738477275,-0.8077095862890132,0.7912533582029824,-0.0823295962956194,0.32743895437913806,0.4156518425578819,-0.07742477049765988,-0.5747531304068235,0.584621745280852,1.131087810571576,-0.42748288159198533,-0.6046740254616918,-0.4732218637489552,-0.9549681369707788,-0.5796673472753272,1.1855056650188014,-0.08740228568798944,1.618014398009095,1.634252885804211,1.8332607932941234,-0.857917858053043,-0.21783721722989646,1.5226938081154031,-0.02990924095008964,-0.8663597666219033,-1.8939237520000824,-0.7061043858710387,-0.4232436417511093,-0.8579178583780013,-0.2178372174332415,1.5226938081154031,-0.029909240764756803,-0.3630549987830749,1.6515067179933434,0.71326329610962,-0.6210506833591912,0.12465605090913194,0.16778135592653864,-0.7291320802792282,-1.0830579933208744,0.6105851293997737,-0.6396941638484598,0.3971978397620149,0.5862536543963789,-0.40512001188763624,0.3121016361077854,-2.778459918003659,-1.772408070711445,0.98995067056921,-0.5918753426476766,0.11530382981950249,0.5754627251081575,-0.7691119328415627,-0.3274713664345491,0.1682619999844675,0.3029619544177423,1.272686286206291,0.8952994103622665,-0.8192507981288261,-0.6174771774909948,-0.42171141954425057,-0.7405384815923418,-0.8754626827785583,-0.6847279544666168,-0.6567543993342313,-0.016306127320299544,3.0
-0.8206699363040437,-2.488116558458203,3.031606771121405,-0.288502125687848,-0.21631497418825196,0.3970268444078258,-0.3246303675644047,-0.32695459586398234,-0.10361810999396033,-0.3163182615495065,0.6187323506265234,-0.7280814410203814,-0.20864752077075335,0.25296755767713003,-0.3668361470811327,0.9369839555580985,0.5197344971389342,0.9116300350621933,-1.03143845700792,0.0213146320054244,0.7388591336337753,3.380108356990066,2.516704202431253,0.15527967017483732,-1.0234656771181483,-1.7473680330289336,-1.6701421491022852,2.2564218163165686,-1.2346909370459025,-1.611902400053738,-1.853121660698309,3.0019631823701194,-1.4596708033470558,-2.4091040777347,-0.2815316344847288,2.1818558663479357,0.2002725700284167,-1.6119023997362305,-1.853121660743654,3.0019631823701194,-1.45967080336638,-0.2836608665185196,0.4789304371185908,0.6926131705633203,2.3756858964808907,0.5586444920777084,0.14131729503513796,-1.5206062377377403,-0.5858759674821522,0.13576495348861023,-0.8231473838784753,-1.026570375404991,-0.4646570019616271,0.9143773054300296,-0.09838009155916953,-1.301645633671715,-0.670836488488385,0.6331954200704133,-0.9202476589240798,0.8081249389053001,-0.749004533279702,2.0663372731228473,0.6698877115818325,-0.46978582755333476,0.43761879964766587,-4.470531820047029,-0.4754557333095672,-0.7041696426493131,0.033403153542350704,-0.17592227033950403,-0.7168511269031107,-0.6697055894867227,-1.7501266347987412,-1.7569146785794931,-1.2892196280352537,1.0
1.5058833932411986,-2.603107738023606,2.9976767117935696,-0.35314855004043016,-0.3052861420143479,0.15862029466126182,-0.34105513614135,0.7776819607509128,0.22115214615166537,0.7006429493321762,1.694571160731816,-1.6053013579611775,2.0699717765202057,1.0124634370847845,2.49663122414145,-0.6080546758063107,-0.6000793989722129,-0.2854135136077013,-1.7147910571577605,0.26370763055159985,0.6817402220465031,-0.147995781244837,0.9052639186588439,5.650496209840511,-1.7516072001728662,-0.9781576067443767,-1.314729990864076,-1.4325068969960106,-1.52519758693579,-1.2464914869620747,-1.5526730925411336,-1.279712641916662,-1.8018269644301534,-1.9240617768620498,3.04932983268728,2.22575574693653,0.22815649477442768,-1.2464914865212118,-1.5526730927153538,-1.279712641916662,-1.8018269646453382,-0.6218960710724071,-0.3497883095844135,-0.31839193770970015,-0.21412634661277213,-0.36358094540551655,-0.2641306242744674,0.3528282646379546,1.400262800685461,-0.7176368274567004,-0.1341755408906708,-0.9445456365094591,-1.1345066992034032,-1.0274119975148,-1.1595835007238813,-1.650509296536599,2.650411360384311,1.8039464035226922,1.077229962843778,-0.21567099028008127,-1.004022191217276,0.4121269984833132,-0.9007269718857103,0.1502746684922948,-2.061102598239768,0.9580387780244669,-1.5839945895023628,-0.47797597229696676,-0.0690172172156858,-0.22541260808277855,-0.49852676753274927,-0.43826632709005486,-0.7191882891404323,-0.6923390983933773,-0.4129073011219538,0.0
2.4424126020534223,-2.6891135990925283,3.1824992124907254,-0.29461044924872193,-0.23183760346854956,0.40488640099287737,-0.32193502092613674,1.9449695459499363,0.9046802433883891,1.6484902915131623,0.5794618036828396,-0.7099775348477807,-0.2208550761545866,0.1330816168045728,-0.5927208798832566,0.764104122339077,0.3185737370437954,0.8776035020541245,-0.8221617217732536,-0.08671914194205173,-0.2801235707130504,-0.8143793109685616,-0.3657044449114157,-0.6256618433345716,-0.8962474246535745,-0.254573288705841,-0.6247783946367728,-1.2602815606878441,-1.1624840818709594,-0.15576008949087058,-0.04537966091860755,-0.12162694787789877,-0.42040088674896225,1.184415751979884,0.6043346704232514,-1.043253599524129,0.2028554708727088,-0.15576008979610617,-0.045379661284576524,-0.12162694787789877,-0.4204008874283939,-0.12487260198940887,-0.32180846740341457,-0.4428189177171226,0.4162301185072168,-0.35001880661899853,-1.1932274510309382,-0.14259647683910015,1.6005826208155345,1.165247224637408,0.03968451082770003,0.3063718068539369,0.7343681575405998,-0.5424336671157399,-0.08891852974032934,-0.9766168204345972,0.7419806600288763,0.8573020309777186,0.7180857342432546,-0.1322418452444486,0.6860642996271825,0.5606261180542597,0.7032269491689899,-0.12324867628918657,0.16137649759551784,-0.7939835062037762,-0.3941518275024371,-0.5359611090390104,-0.7690292556736374,-0.45553057858800805,-0.46026831213346003,-0.6892086280243191,-0.7249316782527347,-0.6982698815699016,-0.1132530809162594,0.0
0.5316936470121421,-1.909315720837556,2.513899815924995,-0.21927445866461046,-0.10917097208278329,0.7690458561002664,-0.30382566070027395,-0.366523666548695,-0.09606531333941089,-0.36173594669567877,-1.8987676018526687,2.405505857558874,-1.5672113081769743,-1.3705548845708921,-0.8035554244579926,2.218865373374558,3.199748175810897,0.01852503774520959,-0.5385139155124473,-0.16539655945211593,0.06991729008079402,1.4171281023458584,0.5363876371437402,-0.5532928810035926,-0.5613317816873247,-0.061401490272405164,1.2097009512342751,0.4556380115460335,0.8492324878867588,-0.3652316433270285,0.6023571203642791,1.5746202101178262,1.042404570840981,-2.3073843963572167,-0.13685560547561235,1.9539863953960233,0.19665882664150477,-0.36523164335050284,0.6023571198097806,1.5746202101178262,1.0424045711557182,-0.4870673238118272,0.45684108802832857,0.35637043173183597,0.5018044875006227,0.04735185982597926,0.25551580805776514,-1.710695894367344,-1.5330471638356629,1.282785978757634,-1.4842616065620555,-0.36852098047297677,1.0045776160970998,1.5254795225639668,1.501336659637758,-0.7349381291020755,-0.4407779430077576,0.7655839180322758,0.5270147175043464,2.2040127810832617,0.7978990477753327,1.915595195192972,3.080529612300382,0.6229235732336602,-0.7212887499060693,0.39504977835903493,-0.5172278547219769,-0.6164109846040184,0.3376813210468448,-0.0050700292902425515,-0.6725547126859666,-0.5341574853389247,0.21124074705258217,0.26844777620356325,0.14233434220036234,3.0
-0.25532619090743197,-2.7412893438627934,3.3013430646790543,-0.2849389369440049,-0.2038211506211832,0.24507541709682898,-0.32547266338886344,-0.6717232061624409,-0.355503878423184,-0.6504838167173759,0.818388328387067,-0.906510481066834,0.12795308363142835,0.34615209293980187,-0.030137182518416836,0.7245370673541274,0.2420978579327672,0.9052520620900365,-3.938059782036914,11.975186478632537,8.968370850838307,-3.4433744947341767,8.003057312102095,2.0876917843282676,-3.9147894046785203,-1.1492830018659825,-1.2862511087634585,-2.4661632391928716,-2.1213239494266,-0.8366703544053384,-0.5410752987849439,-2.6984713684839234,-1.884446206143345,4.2777334993577885,-2.911526556395803,2.2825460578032186,-0.34337324325695007,-0.8366703538941108,-0.5410752993302362,-2.6984713684839234,-1.8844462062995586,9.045149553986894,2.3898396019357167,2.605934876130904,6.441257493084415,6.091997116977058,-3.280107620564895,-1.383077346896743,-1.89716240220096,-0.16587134100318388,-2.3633944998383645,-1.5930752891409459,-1.297810923220683,0.3448451927966945,-1.2010172250780744,-1.10737831844951,-0.9654000592118552,-0.2846138911647125,-1.1033667455262686,0.6260777514469972,-1.364264600621387,1.5639745563884788,-0.9780408937767568,1.2442902192438177,-1.645149206254885,1.5431579237325714,-1.4044467090268886,-0.816288761904614,0.026126365969102474,-0.17957175258858243,-0.8265320516884336,-0.7672578444802614,-1.43309155579964,-1.4295354472353505,-1.154992164101938,1.0
-0.9914581207950054,-2.9688952015293437,3.5262666708920194,-0.28086672123675566,-0.21139316490425517,0.2896129044121212,-0.3079529102401217,-0.12910924244041902,-0.0658541267212132,-0.13859688489057162,0.558343766297922,-0.6766309612061941,0.5829622898239016,0.1895451367846177,0.29171710220876296,0.631685452162192,0.34571276925169797,0.6409643937266553,-3.6230631474810586,4.492739204027653,5.012034315209355,-2.264681902887073,4.632321899508597,7.557820417052535,-3.604140205814013,0.17341491722456084,0.027673970894166264,-1.6157643165957558,-1.0852395391256715,-0.3762119650932624,-0.4966403649278265,-2.0057665239029387,-1.38183341125795,-5.7933285124701595,1.2050297869227506,7.9168535468726855,-0.44748105360940027,-0.376211965264269,-0.49664036532025674,-2.0057665239029387,-1.3818334114306585,-0.8179556792918112,-0.7326703604822918,-0.751223097933519,-0.7951332846182342,-0.5371763218729472,-3.317034218898372,-0.46558029055503436,-0.7586516613472373,-0.7771581629607182,-1.780852320762252,0.5327434162359181,-0.2040097685446864,-1.9114057665317157,-0.9966961218911172,-1.8590088833197473,4.330761926774922,3.178022172472814,-2.2144605151191654,-1.6287824712189432,-0.046760166493955896,0.6495384948267712,-0.7796575597312726,1.7412853143941887,0.5467500275227208,1.881057170671722,0.4053945234240927,-0.6946342489019137,1.6869558498513866,1.1820489705525423,-0.8149390879139785,-0.2999050148233999,0.25144447083869986,0.30996325843923334,-0.3952805822863248,2.0
-1.0297983254766498,-2.2991460934590653,2.8679008773480517,-0.266104939297977,-0.1818623092002744,0.47038270586830705,-0.309132124394364,-0.053268523628053156,0.02855583146065479,-0.08528047189289122,-0.22665830776867865,0.11847205150198983,0.2758820617963362,-0.36204273474428084,-0.3039389600849258,0.9644105702279712,1.2677335212732939,0.14969606432850718,-3.689493547631496,5.323605977882583,4.80649721636226,-3.208390499258935,3.7257916359982914,2.625151944573005,-3.6695253953079017,-2.093192879811647,-2.606471492573648,-1.8309495079163849,-2.541131246955339,-2.007201873817396,-2.433742353085891,-2.002413831199291,-2.5670832013731264,-0.7983915434130421,-0.2243087638021043,0.4062219299998144,0.05518960493715985,-2.007201873872795,-2.433742353181669,-2.002413831199291,-2.5670832013703073,0.5137026101476289,-0.30779479437215,-0.40844283258299713,1.381904010514299,-0.23202819917629183,-3.307484234458838,-0.8087395964114652,-1.586744270125434,-0.5261871146926667,-1.735070314925838,-1.5921145031809778,-1.894019881888569,-2.1520861958809374,-1.785258375704139,-2.056804135296488,-1.0777647686522722,1.747847725078111,-0.3696388422393801,1.246499255530894,-1.7684102947750022,0.2336475427628675,-1.8346979727173485,0.11585291008026401,-1.7443919828643808,-0.022081808945804082,-1.590687411620319,-0.7356173999828517,-0.0754254583926053,-0.22837486734303025,-0.7340646327262969,-0.6434715151948684,-1.0752784141031908,-0.8821241600421557,-0.9831316554545547,2.0
0.16571896596008157,-2.249775035136493,2.9414167138946214,-0.2666139662613832,-0.1856483163418104,0.5070606365985477,-0.32227193925592024,-0.5956945342643225,-0.36834363273591797,-0.5768775465511338,0.4344292317968765,-0.553488308925713,0.03339569086138442,0.023797969341216984,-0.28906185288324177,0.961482891704992,0.6952879726068156,0.7506842807617309,-3.6293565488545463,4.665584739796854,7.8843374475271295,-1.596103975668438,6.743120999577492,1.5209623993185566,-3.6396151520398106,-2.3820782660045605,-2.9937998181065044,-1.4838222715256184,-2.724167228677869,-2.192358706578365,-2.450350750662964,-3.5564912150055736,-2.6576814283827632,1.5247302608437883,1.0109809825302087,-2.1658061832105764,0.18422603408192745,-2.1923587066088257,-2.450350750729167,-3.5564912150055736,-2.657681428466229,3.6963121819755127,0.24182621350974873,0.25690359250012956,1.7225771417410214,0.41624203481926925,-2.4568537301104154,-1.0032199971866442,-1.0383694348349723,0.4877705690607612,-1.1095515057798824,-1.5333415936688046,-1.5742155544125072,-1.2005770718135227,-1.4916930231736742,0.03303543411751357,-2.873813353787047,-0.07623257784225311,-2.893782904586062,1.941366280100364,-1.610384261086877,0.5585554415485294,-1.4705929203938577,0.30650016509131467,-1.2550883465946892,0.9076428493748163,-1.0734912015399112,-0.6257904816870254,0.23048969654140275,-0.06932504561847787,-0.6444952261047476,-0.44186194162006104,-1.1556858616754264,-1.1430786198092258,-0.8509312641873366,2.0
0.21800106325323304,-2.5802086713355044,3.0313529044431076,-0.31751666260199907,-0.2587182541734551,0.4022665487978602,-0.33052643833561585,-0.5290865986117229,-0.39251258203047623,-0.517735821762966,0.5966222816027179,-0.7172049244284986,0.24717355833209703,0.34056688615648767,0.7174535403760113,0.551089706612056,0.22963633222286073,0.6482232573571548,-3.3390262957694508,2.6668948410724247,4.238514326917707,-1.1343617852923582,4.373005297343458,-0.5700181522978633,-3.3300143968926195,-1.2800999595448797,-1.8709737716958417,-2.0014197252425174,-2.0424001774911966,-1.4007132788836931,-1.836785970838822,-2.2995973901592515,-2.2238423967128442,1.2109523995992622,-1.4977105753643323,-2.4206442957879517,-0.22274745567768758,-1.4007132779282314,-1.8367859708739092,-2.2995973901592515,-2.223842396987361,6.789514966635907,4.039315528442257,4.978451929315368,6.547367565880037,9.228919818298674,-2.790384807618034,1.0041607252486353,1.301978939882008,-1.4003264184895117,-0.26483907615044355,-1.051175103612993,-1.683644739062424,-1.8857298048117896,-1.5421499038068402,1.7490946327956702,-0.5196562292760032,-4.0884749267929585,-2.0701711774488434,1.6101793504821265,-1.563036508892176,0.39150567299246564,-1.55401894812785,4.252108429746251,-0.7092520888116338,1.6697608911528632,-0.6227978526953533,-0.36330312074205035,0.13422577557787171,-0.12325922735851166,-0.4099771498759027,-0.2692675252881159,-0.5583733939959606,-0.5262771694506962,-0.6623253726461054,0.0
-3.9311758873943283,-2.863207205194922,3.478520395306735,-0.3073361233338759,-0.23562361061008555,0.0800247288107462,-0.32058734760700275,9.614774413670073,2.4945439391710447,10.110002502441338,1.266550784452665,-1.2793609612196528,1.0666762217025678,0.6550483077981397,1.2249087993687107,0.23890014949780583,-0.176377641737042,0.6255982237618471,-2.0258279142870568,0.4219691686290827,0.5237072637927889,-0.11055739932403792,1.09369642272603,1.7033321843926237,-2.0194458857706086,-0.25807702613561734,-0.4927790695348077,-0.9819967390904719,-0.9425050579659001,-0.14141077780905437,-0.09254921435334126,-0.9041683502336292,-0.4715276852431833,-0.022832390749647397,1.6364740333834662,0.10542855857172277,0.16670539315297916,-0.1414107781222433,-0.09254921370812964,-0.9041683502336292,-0.4715276856229433,1.418874777250083,0.23697025152168238,0.18747200627125588,1.631541010871038,0.22094723629340984,-2.3065495622540584,0.15798999905188366,0.24066143124923858,-1.1387346823507813,-1.1302065750208168,0.6983545525051422,0.8758127071494423,-0.4975824514517149,0.4368091570167195,0.849054603386109,0.6395356753946476,-0.4706896408140011,0.17868618726604543,-0.5359577560925588,0.949497866715421,1.2219824228625569,1.4634425856220186,1.8940702943383672,-0.50910376996353,1.4273272201412404,-0.46139499701256004,-0.44418101520710035,0.5996527408164259,0.1705836497086032,-0.5109929737447728,-0.13992155086381342,-0.449249000862212,-0.413592289096734,-0.6464613256940391,1.0
-0.2948863111925833,-1.8370151769772765,2.4791093296520073,-0.2248737552620782,-0.13188701493199925,0.8083436390255242,-0.3121643893624154,-0.5963540187757344,0.1229657896425227,-0.6464060984640349,-1.64635660932369,2.0174612660433793,-1.1476999501621608,-1.368829253401018,-1.2619915228524141,1.6432660424070404,2.726368770604339,-0.29313735099974736,-0.9006404974862535,-0.037257328878527375,-0.16406376382462987,-1.8366767674159015,-0.5126716536690662,-0.7665400900055441,-0.8355296296743855,-1.2598319860822589,-1.287994311248499,0.12465289463028834,-1.4059723144376282,-1.2699608051073237,-1.6708559961872291,-0.6939176356690838,-1.7877329966426487,-1.9755034906966566,0.797879409632002,2.1653326614363464,0.13279600208527514,-1.2699608053132252,-1.670855996136539,-0.6939176356690838,-1.7877329966641693,0.37382178208636946,1.0902106939006737,0.32906186204188526,0.002722627586609671,0.04192700431137206,0.8738046745357297,-1.6020610072058497,-1.0137871220919727,2.411442747674773,-0.30311553708129735,-0.8865783427522997,0.24540004065255283,2.831373069509107,1.0080307581275296,-2.6902982214047793,-0.33836633651682146,2.7231124947809566,0.8379525387662075,-0.3768800924450417,0.07264578596163741,-3.2539370483281442,-0.8524241026270124,-0.15428406624288452,-1.231952472449223,-0.8026917079221928,-0.994712081563977,-0.6918957393613433,-1.0033334038620847,-0.4904119381703615,-0.5715149058301645,-0.8526983306544124,-0.7364184564773398,-0.3068381919192962,-0.13969315916970315,3.0
-1.4567687867040537,-2.6191671078511622,3.2717260098528134,-0.25999661573710314,-0.1833767120568888,0.5961356112291321,-0.31208015977996956,-0.11262212965512215,0.04366142476975359,-0.14748295372351838,-0.2529933965096257,0.14515087873907756,0.8263941269113628,-0.05884685091807311,0.9987019841401804,0.7387131561310041,1.281691750468013,-0.1860002378486018,-3.0544468941217477,1.709617631297833,1.0087446519379855,-3.386148198143058,0.3550562234047926,3.8296931175930777,-3.1167840605766197,0.26522171368417324,0.5334620890929375,-1.794844423293096,-0.9760896417681992,-0.5260250313077164,-0.19103359556446928,-1.614129531778983,-1.2586155865293565,4.6486407906883045,6.173932825785075,-5.8078734088486215,0.16289514020220736,-0.5260250310658035,-0.19103359575378306,-1.614129531778983,-1.258615586631253,2.0187689423580655,2.994992257081305,3.8554206160016826,3.719394824687105,3.6996358350352803,-3.3708415421629008,0.2652647967002217,-0.20685758026295775,-1.2704095463556269,-1.8916319730387459,-0.6040000084358587,-1.2392667963183026,-1.82309112748942,-1.5184271269994365,4.754569277082766,4.012178925377882,-5.078744736903095,-1.4208196037221892,-3.085664371217283,-1.481349386271605,-0.28388831547715065,-2.0511047506887143,7.286167442343251,0.8738737156397729,1.5689999610998273,0.07499774637244386,-0.4998620192394789,-0.5680578603970821,-0.40877144579884184,-0.4221863566474416,-0.566852035291193,1.7676991964865747,1.4546044115084278,2.662955135695321,3.0
-0.703906585682672,1.0768212131822619,-1.1089944146591877,-0.33787774113824537,-0.2961997248746615,0.14028132929614148,-0.3119117006150778,-0.46775453905041825,-0.41592625165957947,-0.43479917932212975,-0.2997198170534642,0.17493030847261587,-0.6157202101983503,-0.19783073834580464,-0.207672513661107,0.7552724884763684,1.5668038148969325,-0.43452391750938313,0.42187220550657734,-0.3303234745279621,-0.5574584897749201,-1.4084232231409455,-0.8272753162469185,-0.9193190104820554,0.42219619186642005,-0.36304018128081744,0.1612350039046278,0.15704716486655335,0.16914466589020127,-0.4801481496604118,0.09944970807102119,1.331007290085235,0.718757960257444,0.25803841526951005,1.0496148300122172,-0.15294956879331836,0.21935862612709814,-0.4801481502983941,0.09944970861970896,1.331007290085235,0.7187579608265774,-0.6806315278412962,-0.6089700055768233,-0.6730255996367224,-0.893992135781202,-0.5127644720572148,0.462666598568166,-0.5689320980126277,-0.5267638447088342,0.14957246105901323,0.5430878053807758,-0.231896563934543,0.16257770832170695,0.7513589073521911,0.7633045772952746,0.12393529514618022,1.8389072196973826,-0.07595880417374369,0.24411241434010522,-0.7574227311790375,0.030149403223409473,-1.8129089572513226,-0.5260360950929748,0.15432322343578153,0.37450144870302104,0.483872676517152,1.1516906911868965,1.685451889246404,0.1717098771525131,-0.1026820080395539,1.7957609402157777,1.5726577713837564,-0.012751428327217543,-0.12298391344704214,-0.5556837236905494,1.0
-0.6289689128958215,1.1426493025977449,-1.1900328878524504,-0.3170076356385929,-0.3037717391577335,0.273893791242018,-0.22018568533152155,-0.5927268539629691,-0.4428897357163209,-0.5733231190179551,-0.7945813263407784,0.7842292174286217,-0.188933398659869,0.1625358672353523,-0.09075987596951621,-0.3628637822405186,-0.026731459310534916,-0.5163689544172227,-0.5402787671483547,-0.1256358282667777,-0.20683175706586174,0.1735344322681054,-0.07582779329796527,-0.7584990941909909,-0.5832763841155625,-1.2148151265069331,-1.3013727825232122,-0.606320868589656,-1.572216004259009,-1.3783507646323407,-1.3728523184266246,0.1376577916266647,-1.5384136695096091,-1.5642473115725437,-2.37579596908266,0.15522804468819376,0.20721971885069573,-1.3783507649850972,-1.3728523184730972,0.1376577916266647,-1.5384136695302881,-0.8041785129499696,-1.2618329897510414,-0.9076284105520424,-1.9256969549064058,-0.6321112933785732,0.7774577484665104,-1.0286343681788659,-0.5307207103709156,-0.7839627503718215,-1.124795884765454,-1.4370494501124524,-1.089194642985505,1.3286351188025085,-0.6204232188320953,-0.27950777857817316,-2.250118492043308,-2.107307859303672,-4.1124204020870145,0.9669930263310326,-1.151984114579587,-1.3979996612429033,-0.8663205863928792,0.29061520987148853,-1.5652652768237314,0.044808301707600244,-0.9433391121192036,2.5003463888577966,1.1657998977228243,0.6404435783046029,2.540126463076426,2.3915990945514367,0.17678041237876677,0.23286307714441726,0.30097481172102397,0.0
-1.6711253856059751,1.1138251599594127,-1.4133082632534368,-0.3450041186259316,-0.30755774629926946,0.15862029466126182,-0.3191554447054229,0.10171033655373814,-0.1723485595503602,0.04011183274980171,-0.517286192227829,0.43850230282415076,-0.25702492946581945,0.27673097207947,-0.034492760226454366,0.45457624350055625,0.5950796569407646,0.09551964183221502,-1.6592686627119186,0.22633625926277348,0.15132107710775283,-1.1361492149710049,0.10309432193675849,-0.6623287842489344,-1.7289486605225253,-0.580600902394856,0.27956009139978255,0.6488327538636609,-0.13311658833049095,-0.23856083549823132,-0.06432287537769706,0.30363075006493806,-0.3241409712058665,-3.984102914704708,-4.627496957339701,-3.0190848827306676,-14.475375972760249,-0.23856083603355227,-0.0643228750997763,0.30363075006493806,-0.3241409691609488,-0.24396380485216176,-0.2576441670339096,-0.3522357688439644,-0.2837719766052635,-0.34459395110439134,-0.013686483866951227,-1.092314706639811,0.32969737108161623,0.6715352927325553,-0.5393931065990926,-1.3130696406526767,-1.0448202185083904,-0.4663541531119954,-1.0233383955095334,0.4152215640028455,-1.8628733280067475,-1.1458497057243007,-2.519002444227012,0.12437698793728724,-1.0605546863795121,-0.9933716552927672,-1.4776084777447043,0.011639265897331124,-1.8690894033939287,-1.329009443833178,-1.8378461432310342,2.3045190221415215,0.6657433617337731,0.2190717721732616,2.391547807651362,2.3123225791018673,0.061912630132715564,0.11424741361393072,0.7152027043583076,0.0
-0.201388493866664,1.2241980576332838,-1.2157341458405366,-0.4249213518806985,-0.42416676625857813,-0.8159647218851318,-0.23534701017177878,-0.6729294033338132,-0.4415302323185021,-0.651921088984056,-0.5993212521805223,0.5382439514210136,0.8433154423473529,0.6810182956062996,0.7345790079196529,0.44337623044404106,0.7699388834438479,-0.1040105797385064,-0.19260195895474475,-0.21134177762424658,-0.15012340164926155,0.8029389004014823,0.04577837857311913,-0.9363659216089082,-0.21724036440142913,-0.8228588366762496,-0.5729574837304838,0.9800067758023534,-0.2288326521670435,-1.0390443662909037,-0.4582410865889596,0.6280293249515705,-0.44487917200884053,-1.4097273370514072,-1.0901416834017381,1.3802433157382588,0.2242957006069872,-1.039044365294469,-0.45824108631377913,0.6280293249515705,-0.4448791699742678,-0.19179988666978454,2.122746165252271,1.8145696349242832,1.6345282630182807,1.1608034541991081,-2.359645741404342,0.9265899616753647,1.7763531313819871,-0.6095360015992638,1.1419291087488879,-0.25852814158600546,0.2516391759177548,0.6005038003980532,-0.024783573877590594,-1.036211640727559,-5.26569516572973,0.3142877265917572,0.07570574021120757,1.5546364898385576,0.23603081212974428,-0.9011355201574615,0.07637461690364598,-0.7900926074477991,-1.4516884513743076,0.46981580391736005,-1.1698137692653252,3.4139982772377473,1.8691690584887464,1.3960842458263938,3.4015661997985047,3.5254139918482923,2.324807940379923,2.178159959044395,1.6406054432288344,3.0
-0.8380973020684276,1.1372256168192343,-1.2741281623919045,-0.3251520670530914,-0.2814342970226711,0.1795791122213993,-0.2993614928306426,-0.33025201842104174,-0.3150964163213445,-0.2975587829021745,-0.16804157347822998,0.03658496747651553,-0.8973233201173355,-0.5733978214481894,-0.4271089751338196,0.7117493145240554,1.2894737728370977,-0.23199298583754524,-0.5663790500259223,-0.1534998344246353,0.1419805261820594,2.059525149648634,1.1042212530339548,6.15514910716187,-0.5608538736305283,-0.2830103476140774,-0.10715646291754503,-0.627096891352738,-0.3463786954750904,-0.34368210728123316,-0.20014273742353555,-0.34770479449620795,-0.10067819849472581,-0.38032293837343956,-1.024832159123915,0.05077921589751773,0.16134175353925548,-0.3436821077348765,-0.2001427375455484,-0.34770479449620795,-0.10067819738905567,-0.08517554032305118,0.29742961876026974,0.18253233406552516,2.012436732038517,0.23857801671588325,-0.709313209313285,-0.7056442929498062,-0.1265259983305846,1.5720004773210403,1.6080232999308965,-0.08884354741466464,0.2861138493713986,0.1801250534586787,0.4607713379363725,0.12475917208958649,0.8469290736679848,-0.19242515541945782,0.6809944972813253,0.7574470865709435,0.06001367617015572,-0.6075688437746563,0.6812429184003167,0.7772177631717532,1.3031403019209309,1.2372778341416248,2.9015881824164316,1.5664620972556045,0.18088104477600092,-0.0975650458777086,1.6718018052056633,1.3828398409421672,-1.1154821378893085,-1.1015631375735555,-1.0210291009511572,1.0
-0.02946753060101745,1.124557532744391,-1.1965316853295338,-0.37656379035711346,-0.3575330405675446,-0.1426627077657147,-0.33456945829301776,-0.6412649140028833,-0.42687780680867615,-0.6226901680898813,-0.504465779856814,0.4149106358068517,-0.23781182965422606,0.45326003728648717,-0.3881177605778363,0.8769779496780297,1.022889333942298,0.2737657721340654,-1.4937940399621958,0.12955223531166313,0.3824701623188878,-0.514889524874467,0.603087164155409,-0.40180051985740994,-1.4255613970922034,-0.1507836284344984,0.12729757798109026,-0.18241824991123404,-0.0609097331555478,-0.3221177736786483,0.5405254578405189,0.5960805060349913,0.36528017069420166,0.8188276471066263,0.02091535467187368,-0.17916378263280916,0.20090347326706784,-0.3221177738872253,0.5405254575413041,0.5960805060349913,0.365280171831535,-0.6102384749667377,-0.7742310617008751,-0.6309744687879251,-0.5147577257344343,-0.4964899055133931,1.0152467220111552,-2.015833808609622,-1.8515194899995961,0.9616441221201615,-1.744253071008102,-1.3922771845962096,-0.6891787968822264,0.9385985536650262,-0.16961851428606095,0.064830413633789,-2.9335597297216895,-0.7251916399362047,-1.2505710156971033,1.2864039348033465,-0.9301385280521266,-0.8309931997659608,-0.5169428142319287,-0.8644517742632721,-0.3676202437418273,-2.703040842806955,-1.0768497279592313,1.8035768908519827,0.0523089909862311,-0.16634525251183907,1.9207295997087643,1.7264289613378614,-0.5756035613328682,-0.544069518980269,-0.7654416778345355,2.0
0.6972536217737885,1.0905720503012197,-1.2656146717882897,-0.3572207657476794,-0.34087460914478623,0.0014291629602305816,-0.0852498942532322,0.02916704029843155,-0.2407013692740326,0.04998524256418694,-0.6104993902206318,0.5452440737445109,-0.17139603719957522,0.5099316882422438,-0.32445745435710827,1.0270939063859703,1.263666217282355,0.24326547735888607,0.8809179199355655,-0.366210976508587,-0.4641821013147035,1.2303703748977333,-0.13770872330118653,-0.7507797382090199,0.9964729084123375,-1.1074879079980589,-0.8847751571348477,0.8516771659095159,-0.442094759311643,-1.2123772790260894,-0.8871603216059879,2.3033288948607593,-0.28873979786101,0.6034273798296445,-2.199298301185857,-0.48000399800757254,0.21093774348213112,-1.212377279666307,-0.8871603216885817,2.3033288948607593,-0.28873979678451867,-0.102286346153386,-0.4074531370707355,-0.31813102844148383,1.765739525073461,-0.17777964403021976,0.19281140349857595,-0.8440497952168609,-0.5004281929106834,-0.3231105024177067,-0.12323428388857117,-1.4232092080902499,-1.3175476309704852,0.16208883941907673,-0.9380127816849295,0.8837920997498935,-4.0673964886933405,-0.47061170787939743,0.7619650035359212,1.3969311936896387,-1.329557390370948,-0.37855824900931334,-0.9912610527788773,-0.4151467860280611,-1.5728692389800079,-1.7645811384271655,-1.7262694728878285,2.0473723546619538,0.7099351834930291,0.2524317941135761,2.108232448593747,2.1971308228565687,-0.5698601722205656,-0.5381387358037448,-0.7592723262420653,2.0
0.10472318578473812,1.2207089365826214,-1.442098200741282,-0.36332908930855334,-0.32724498343525665,0.12194236393102119,-0.3418132023833629,-0.6161385541180907,-0.4448156988632311,-0.5990927186335006,-0.7616618428569343,0.7282187313431451,-0.0925716501647201,0.46990777581610577,-0.010066970355588272,0.16431510795337148,0.8336188476302039,-0.5826822749504424,-1.0133973584212188,0.022929204960123975,-0.031542476334990535,-0.11271208917602157,0.09472517976419169,2.3340678960861783,-1.0374237899493401,-1.8130921440426406,-1.9843345664594714,0.4396797649299112,-1.8610434249587815,-1.7638407557257043,-2.3439368927014557,-2.008390908208706,-2.3550489270898485,-1.0877795320012233,1.501750336130279,1.0997480722941615,0.1970437583931693,-1.763840755677415,-2.3439368927792543,-2.008390908208706,-2.355048927329299,-0.07662013294196382,-0.5149486733250472,-0.5608912823027588,0.05508695568314671,-0.4029111478864188,0.6230153346594604,-0.7366285267066446,-0.396873223580637,0.12230047352101342,-0.5417526662668046,-1.8025486440639618,-1.9847246013237863,-2.3259917639462584,-1.7457960927075744,0.241014698309217,-1.655249377091298,-0.8989382250402865,0.9484691615001978,0.4253769383593909,-1.9091121286701747,-0.17683452618376536,-1.9711007035095074,-0.4432348079742235,-1.5890121312171754,-2.859469458272466,-1.7994855863218688,2.03244698120826,0.10385231887527363,-0.1395362271522072,2.1716832870104144,1.8140869983263466,-0.40330188796379157,-0.6271004834516096,-0.34240042577943747,2.0
0.599660373493239,1.238585278618981,-1.473108229440913,-0.40456027334445216,-0.39274290698382935,-0.06406714191519909,-0.3439189419445097,-0.18186800335336928,-0.31320821715770714,-0.1771031831666742,-0.7666108328359266,0.7344820103878517,0.3975833738726858,1.1517385038759458,0.2738763589723406,0.9315198147769953,1.0119602191082269,0.36469489851162606,-1.8144937899321352,0.2623637170673047,0.6529366760550203,-0.3132527515593889,0.9930131062863626,1.5814306878439968,-1.8135055261029123,0.5335324860018682,0.9550139163584292,0.19959267873756584,1.0171554068982545,0.2887381014991332,-0.10303026294677765,-1.8779985732268145,-0.9881841840565784,1.4697877774769779,-0.5787947095047902,-0.731466711967126,0.17368523822084883,0.2887381007458246,-0.10303026277438683,-1.8779985732268145,-0.9881841840207155,-0.6043921303146786,-0.21320250104295868,-0.4367200892495664,0.16631647417573983,-0.3432377372257395,-0.6046587433292708,-0.8301522228464857,-0.6892988043472463,-0.5505686753057429,-1.2720584929289256,-0.45321020672769075,0.38021489868426,0.486422059945794,0.32735405617850255,0.7289229642616657,-2.236132526692839,-2.125899570061162,-1.3067941135484207,0.18477949734214072,0.013958077741470494,-0.579200473342924,0.6328431605881256,0.364004656947702,1.5059516601683522,3.3544864398239738,4.590702745690065,2.8663079431528775,0.6977206269898238,0.2431359409313738,2.9420108135716996,2.673056595728838,1.5551937993313805,1.4605351946849523,0.4243618435704276,0.0
0.07509666398528558,1.1882055673182486,-1.3683255573733548,-0.3460221725527439,-0.3189157677238775,0.14814088588119306,-0.3239565309048377,-0.6098734512596778,-0.4340529636304981,-0.5865534881692313,-0.24135437013200944,0.1164411059184078,-0.7702893152550989,-0.20418910473493834,-0.45910722472690557,0.7810314275584477,0.98856887104938,0.16923283766299366,-0.0760446638994284,-0.3741191357114674,-0.4842055492100149,1.4313321214407206,-0.27009333584906153,-0.7855168401278898,-0.015273655031299418,3.2235054773508036,2.6425927663539697,-1.794706986438892,1.230417514042854,3.021897820769026,2.7825943322982196,-1.7567529828344643,1.483305466551996,0.6275094188984699,0.3392771402330602,-0.4788168980054247,0.18597231150097693,3.0218978204829336,2.782594332466262,-1.7567529828344643,1.4833054667095076,-0.35639772346662896,-0.04937316195684724,-0.16536037029227688,0.08054404110954898,-0.18591692730213058,-1.017395256090166,0.5840857080050575,1.034123265238504,-1.1114314633073614,-0.14415793680911576,1.016488423292933,0.49839786404048114,-1.2852364549833144,-0.2887383619320595,1.0088214734520349,-3.5245900396579426,-0.7756506878739071,1.0404943712613284,3.1774369736920796,0.6202117624532593,-0.28224627054236784,0.4050769815284314,0.2057135992411217,0.721093885469043,-0.2811755449341317,0.3996260185999325,1.4312653625890532,-0.355655000583466,-0.34245015076671226,1.5948489000115684,1.1495233219783854,-0.2712039383808327,-0.22973801062447993,-0.5574463955741124,1.0
1.0841411417431097,1.287086480888518,-1.4527720580043928,-0.44019216078288326,-0.4483972119644085,-0.33653177019698655,-0.34484546735141436,-0.086242749198647,-0.3328454884595357,-0.10305260955878466,-0.561032209120573,0.4997346355151521,0.5794366524363613,0.482315416591032,0.20972964836704344,0.5958890214846926,1.229348385460354,-0.3391744861750369,-2.7318119307895827,1.0558771764132826,2.307728917818407,-0.7207324096029138,2.3027838562930683,2.625151944573005,-2.7871731512422384,1.446877191671006,-0.690364626799957,-1.5384674426937035,-0.8770151195514168,0.37063580890950065,-0.6244447280719798,-1.293171632484345,-1.022147089597606,0.825110052768279,2.0959990076997026,-0.5399789563067793,0.03614216410567504,0.3706358096973399,-0.6244447280631389,-1.293171632484345,-1.0221470896064175,-1.077602180232233,1.132985545027743,1.5685123216913126,0.11151573260928656,0.8035767185622236,-2.6563119185102257,-3.980121166518427,-3.9926152759676716,1.6559366665137556,-4.566917086700852,0.05431514433888865,0.4550505924679113,-1.625209028956878,-0.6204782908553519,-0.6331293904940308,-2.3534235269954995,1.6537581228921592,-1.022471375619536,-0.48646202199759603,0.43879932156314516,0.7417197578649913,-0.09137386430878809,-0.309036263730454,-0.4317407750927123,0.44454944484714176,-0.6224493802779892,3.4902145334001737,0.7649970863304227,0.29504961400474883,3.5803957368575055,3.2047002036462713,2.7727922911395226,2.510283816929757,3.5178509992233313,3.0
0.9046392743699563,1.2054083391258712,-1.5382929929814182,-0.41677692046619996,-0.43022437768503574,-0.11122448142550846,-0.11456178894439618,-0.2610061447227946,-0.35588151825591147,-0.24424236990449402,-1.0653547299595036,1.139154693478029,-0.32826427397792585,0.539601352562852,-1.2506394501976255,1.5470783554441287,1.556013748844378,0.6781717980769812,-1.3802330122444177,0.13665709618815078,0.5209240712831442,0.00812967058022996,0.7077014413124941,-0.48799999498942054,-1.4513815888387187,-1.4351904840525824,-1.4020547577050644,0.583549842322944,-1.3807838765859037,-1.5461727950050508,-2.059919270594656,-0.6840804584583111,-2.1134347869535213,-0.6160330025670605,-0.9288872391401835,-0.4820891411484148,0.08008487795429053,-1.5461727946693664,-2.0599192706740928,-0.6840804584583111,-2.113434786916559,-0.482146192713988,1.1994113732793101,0.7180348743361911,-0.3004780897757924,0.09075070394283691,-0.4673560884544582,-0.9863561173105152,-1.5146886525751593,-0.1744782939442769,-1.439571529900098,-1.3498956878408699,-1.0955498265416734,0.7936260304139763,-0.845002519877383,-0.8171739602829842,-0.24108870711305355,0.7567335128664785,-3.3851409863974924,0.2652319268415622,-1.371246470800846,-0.80923001285757,-1.4802928851034765,1.264202922328766,0.23122475929725522,2.4325249155192292,1.2360163802074684,3.0708851841528815,0.8290985547259216,0.3461345148102585,3.1814599693465087,3.035167733592402,0.9521379425396117,1.0335188059752005,1.763992475078238,3.0
1.0771701954373563,0.7605826369714169,-0.9792594744626821,-0.3215888783092483,-0.3052861420143479,0.10622325076091807,-0.0391763126553394,0.8007639186503286,0.0814254080425008,0.8684909161767258,-0.21582989029706368,0.09807824471074601,0.6293850592189247,1.8430962721259674,-1.2055262278914036,1.1195775319458665,0.6535713040465877,1.0353629076057698,1.468255881679908,-0.5013059400044056,-0.6866426445224743,0.10591145905754751,-0.8332351599152615,-0.9524479132380147,1.463072736702608,1.040139080565696,1.6639436544965582,2.1175415635515997,4.044805636675521,0.6024377165380459,0.6165429945795495,-0.8646813115603946,0.7385817279660168,0.78654048998988,-1.885082543056327,-0.33443115358386477,0.16598805364088695,0.6024377168233614,0.6165429954637388,-0.8646813115603946,0.7385817260896574,-0.43252486563104076,-0.9193536800186398,-0.7314508118575025,-0.2034791710814574,-0.5331076802369917,-0.42576970559546196,0.32742202703038975,-1.0442961399770512,-0.47149686793173706,-0.3758384997945998,0.8125498173516323,0.25727778248501426,-1.2917262239008662,-0.4960466977539501,0.9657526795414914,-0.16814608769265096,-0.33870110313808305,0.8566822412991576,0.08985972463903275,0.15458939408747996,-0.10951824545057975,-0.4451204862573883,-1.6246903384820408,2.3617773275922245,-0.11893429144042075,1.1300469599824634,-0.28675166987321954,0.3653311120383396,0.01222210941367388,-0.28840459286164416,-0.041414018234126285,-0.644524230680499,-0.615238917098561,-0.8227285140503301,1.0
-0.7875579413517144,0.6812494102877078,-1.0710992660422036,5.920099746977068,1.9436021000580335,0.15862029466126182,7.591097331533895,-0.47797654897730235,-0.25731752191404134,-0.4999636840970725,-0.05400736038590541,-0.0846909918040318,0.7396232216936716,1.7385388906726917,-0.22530180318316884,0.9065517039988256,0.8409428204513999,0.5094982182266997,1.8087458024066199,-0.4951500628112996,-0.7843102010915962,-1.8531937322393446,-1.2128898821071559,-0.43364286328304075,1.7533852479990446,0.049336640426390646,0.9620380045266516,1.7317514346140745,1.8618076895260778,-0.08650270661588656,-0.47602062922092003,-0.7651041481614067,-0.36616671659797756,-1.786448760358776,-0.6143108698867432,1.4103508535506732,0.2061529177634471,-0.08650270684747736,-0.4760206288651948,-0.7651041481614067,-0.36616671740765755,-0.5307548456677059,1.3078946215245835,0.9967040197464413,-0.6743115493972016,0.05955778473384547,-0.7849248089436951,1.5170903412384371,-0.030878111397234655,-3.0493088072792203,-0.21971704625969551,0.3366416033469339,0.02539857613822973,-0.08602331470220353,-0.2018789466442241,-0.8448769413725732,0.16937110347547854,0.6490478504233379,0.9931098124500943,1.7463686502051214,0.012174183964877561,0.5143118399600033,0.5343017887509373,1.3268608189803262,0.997280091727494,2.700070745955612,2.467528537528238,-0.5225183573532338,0.8299757743303757,0.3468445764964426,-0.5808844092941499,-0.24401890024393968,-0.7191882891404323,-0.9948090403961177,-0.4129073011219538,0.0
-0.3694754366641461,0.7656078225367562,-1.151300632619422,2.7855117063219437,0.2679153392142019,0.3446298005074821,2.644630872817528,-0.6589720731342922,-0.41328277283048714,-0.6439081257809953,-0.11648020220543298,-0.04003096296949959,0.7714111171455782,1.7611715719297951,-0.28775593738861943,1.1663876766344154,1.0858866126099873,0.6282418549140624,2.2472303915139054,-0.5671314240690178,-0.8233474870581575,-0.794127715231816,-1.1610265616741282,-0.6687615809005769,2.1569904367296555,1.1618000876773265,0.6318588742645819,-1.518249845213697,0.00625943444905047,2.2967874388299143,1.8342712298944321,-1.6854688403749571,0.84229330654688,-0.38199072595487155,0.3139580656103927,0.3116548613223443,0.21031741341326451,2.2967874387697336,1.8342712298533423,-1.6854688403749571,0.8422933055657439,-0.6012373955767409,-0.8335450546611559,-0.8285838182142727,-1.694060875277297,-0.5751503104751976,-0.7849248089436951,2.0898390595687824,0.6874212714820918,-1.8644150123021785,0.19624396279833606,1.9027607826032045,1.4753401103191441,-0.5526121196597058,0.48019856859376414,-1.0873171445889191,-0.61290240694332,0.5452734004505538,-0.8293452008736366,0.685782162593323,1.6756545534493437,0.23475581988591473,1.5550645610066403,-0.285502748410238,0.9600833530370587,-1.1075753833812358,-0.30430273493861165,-0.5683974313987755,0.3019664217589924,-0.02697041926783965,-0.56610658596719,-0.3796535672003156,-1.1212255270016112,-1.1074939207500798,-0.5283623094953244,0.0
-0.065542177733292,0.8233692189528746,-0.8667547354842045,-0.5399614456104903,-0.6289897526156755,-0.8081051653000803,-0.23585238766645403,-0.651915588862185,-0.39817717952138826,-0.6399686352650557,-1.4750210907260202,1.7294282710946427,-0.741919151427717,-1.5886497965975674,-1.1921508921481279,-1.4826014002532175,-0.5823824622233323,-1.7888614183807845,-2.4410296922755648,0.7686271773442158,2.1221119730854907,0.2973663275258558,2.942135596203399,-0.4754560415187175,-2.453834592372897,-0.6990180897664233,-0.6964071190669614,-1.1586432332833552,-1.2716339792284317,-0.6412724269082144,-0.6943654872367665,-1.2137996179150632,-1.2821210590633119,1.946371517060722,0.5148661768178889,-2.86388500478346,0.1900395779419142,-0.6412724263511272,-0.6943654866574746,-1.2137996179150632,-1.2821210590983352,5.9349992911181655,8.553691997063945,6.146606021667881,1.9863704955955577,6.09335333085571,-2.5564858592378683,0.4051847376587583,-1.5260721385739282,-0.46549904165954614,-0.9730390197317699,-0.20142371589732755,-0.6972721761111726,-1.3125430034136156,-1.050363882677629,0.7391145058520252,1.4698851112338165,-1.3981415093920537,0.7614869932473981,1.889956943415105,-0.6580762289176815,1.2074272169813218,-0.7573298162381148,1.7163973673014172,0.3775205887537575,1.4928570673456754,0.6116771488598423,0.045204087764647474,0.017055660169401417,-0.18409238102236578,-0.01199724760769284,0.15156330138348323,1.2680243437162526,1.3597118806840387,0.8914698927145983,3.0
1.3472943647853057,0.7338118051332267,-0.803607866969759,-0.26966812804182017,-0.2749980848820599,0.273893791242018,0.1420015191857345,1.4404638947198498,0.42885405415177474,1.5695030129980798,-0.5300490105767627,0.44076873213578066,0.6395393701786909,1.5264021997363257,0.03858646094132917,1.2790091280064075,1.1443817088507955,0.7287859248506507,0.7706667607430756,-0.3707742446265924,-0.4634360997057534,0.2566876030093042,-0.31181224152746273,0.07261823320123019,0.7691550470843264,-0.5451068460009058,0.19105416788813667,3.008577977324069,1.9205807111801012,-0.6842390516112609,-0.311449246104425,2.087468335305343,0.8863704669618965,0.9535017974381789,-1.0988904967921065,-0.6273857267832511,0.22881467825622462,-0.684239051663762,-0.311449246071905,2.087468335305343,0.8863704670402963,1.006493762683865,-0.6833024184235618,-0.5066649025633089,1.3008404633534638,-0.2889891820796675,0.8596274983290819,-0.8667324062632914,-1.6018194842705331,1.0184607887246455,-0.1986694722536129,-0.7974371473609699,-0.7522960591964959,0.14633849252467207,-0.39061855098140835,1.126776195862622,0.7031355090541677,-0.6496550434768037,0.5068073334657558,0.5782999559280262,-0.9123571068638524,-0.31321822998832655,-0.5007140264745129,-0.42874439631589983,0.397715555413727,-1.1261126424061096,0.17046360283207523,-0.14174433188425606,1.1595494624737492,0.6345824867137144,-0.19571831171732476,0.3608432335744143,-0.7995957367126679,-0.615238917098561,-0.8870660378003761,1.0
-0.36668705814184466,0.4592391248249501,-0.9920031203527564,-0.27221326285885095,-0.2083643591910264,0.4494238883081696,-0.30500487485451616,-0.6412319397773126,-0.35248275976136423,-0.631674971020972,-1.3389747264153613,1.526665964093015,-0.15739808322484636,0.036993219716326915,0.4612198607767634,-0.6094258012539079,0.7413087636504029,-1.6477891843315229,0.8179838538815101,-0.42830235286679347,-0.5629091640519056,0.23445514374546453,-0.5398079631376919,-0.5918896609134482,0.874049578656737,0.9150844568485371,1.1188462566381945,-0.13855316897238804,1.1615691172481408,0.4672245731658698,0.4541983710458609,-0.5412925030718092,0.5442014821021591,-0.33960051590087015,0.03477630514417784,0.3686578672074809,0.21867747957632971,0.4672245734551249,0.45419837180494843,-0.5412925030718092,0.5442014809134066,-0.4544505672570129,-0.8531800315811905,-0.6968606157679949,-0.17410232735856065,-0.5181893275718219,0.006359382730429737,-0.2742410383147076,-0.10908933230050114,1.2983109653505533,1.2258741534051192,0.7607962740569418,1.276046288555208,-0.07039267242824132,1.0013952378258937,-1.0510597250958138,-0.8340584760216112,1.6632295016646703,0.8905225789484137,0.22976757381311624,1.1295179469871455,-0.8663914258526068,0.9429096022219902,0.5667425586502174,1.4675854414715688,1.22578993417361,3.264241260370411,-0.7828464026850644,-0.000604958115292054,-0.19280314110232236,-0.7525690905201342,-0.510815689686889,-1.5755276057847434,-1.7486115821323591,-1.208753656550607,2.0
-0.5383466109210255,0.5398426583285414,-0.9648857792757719,-0.27781255945631866,-0.25833965345930154,0.4808621146483758,0.12203910814606249,-0.5795371637347315,-0.40270885751411795,-0.563252241007282,-0.6787412925912851,0.6265339828539572,0.4810191557025504,1.1246386567372915,0.2181108406154921,0.7345461540847404,1.1131850346518786,-0.02520451905319471,1.6626988203252224,-0.5082863581192686,-0.5537981707300702,2.9076250897401734,-0.26781084252927057,-0.5172692197543942,1.7143187988903519,0.6884794393689955,0.9325754249153472,0.18132113423108534,1.4520757671380282,0.4288324808482572,0.3712623512567924,-0.8644861889200686,-0.06412512575225175,1.2165225637099042,0.04955680064253312,-1.235205363972741,0.16758409925906417,0.4288324810133944,0.3712623509387843,-0.8644861889200686,-0.0641251262711781,-0.461613232863058,-0.8985859159204599,-0.6837161834563467,1.0014990447275172,-0.47885912509091966,0.07548305678059594,0.8115449923855823,-0.6257598396050296,-0.9323144940526727,0.06441699672741116,0.6109599234623658,0.2194779970081676,-0.1516610968438889,0.6804513215707283,0.5203082195537139,0.803439173170566,-0.17319868962416612,0.26678427058485127,-0.6966720515074895,0.20514320787419071,-1.1197182865474442,-0.3608819673346251,0.8420218394168708,1.4096665467655185,1.1597287205858462,1.3461506871604676,-0.735748435241168,0.29359699219743657,-0.03203153034218099,-0.7435717227884077,-0.4297762525582267,-1.4066719658830482,-1.5748396350601963,-1.1320774296156204,2.0
1.0545146199436572,0.5219224952511962,-0.9872038594415115,-0.26101466966391546,-0.1845125141993496,0.37082832245765396,-0.17343826707406176,0.2731763095208264,0.13807138295162158,0.18821297996558076,-1.5092152596344448,1.796307932731329,-0.3339607644957872,-0.2572542118604195,0.5120361500849683,-0.5464256880106855,1.5586524697664443,-2.2392106937215597,0.5200959586653755,-0.3248427681528352,-0.5698337677624694,-1.8861710844156832,-0.9289730741620486,-0.9321846037853405,0.4879987312197266,-0.8049375102159697,-0.4069496047841792,0.2438775017388917,-0.3715671333268148,-0.6604755898316399,-0.24563708211547605,-0.025424883917821817,-0.6401238233926381,1.4366332126369903,-0.26126408372678617,-0.8392991196654013,0.2114591936578743,-0.6604755907916057,-0.24563708181945382,-0.025424883917821817,-0.6401238235705993,0.07737710166736989,-0.765068072481343,-0.7425122028052572,-0.8206047414447215,-0.5181893275718219,1.3563174956924247,-0.951018350568557,-0.9689541540840266,1.8085252106944616,0.7488124087593705,-0.6720218626547041,-0.4418703782352893,-0.5248832722608983,-0.5543175802313162,0.15752933349378984,-2.104354888890327,-0.33764914546379,1.0497232615175802,0.41686055704281283,-0.5402683718994072,-0.027670859546716668,-0.002029982602317755,0.13447323347452436,-0.10280218413744736,-0.5754107695229232,-0.06609047653859536,-0.7299553034306763,-0.44542130487281634,-0.37259828122719435,-0.6666932166050066,-0.7097983077461552,-1.1556858616754264,-1.4016607663056861,-0.8509312641873366,2.0
