ECG_Mean,ECG_Min,ECG_Max,ECG_MeanRR,ECG_MedianRR,ECG_MinRR,ECG_MaxRR,ECG_LF,ECG_HF,ECG_VLF,ECG_Ibi,ECG_Bpm,ECG_Sdnn,ECG_Sdsd,ECG_Rmssd,ECG_Pnn50,ECG_pnn20,ECG_Pnn50pnn20,Eye_Num_of_Fixations,Eye_Mean_Fixation_Duration,Eye_SD_Fixation_Duration,Eye_Skew_Fixation_Duration,Eye_Max_Fixation_Duration,Eye_First_Fixation_Duration,Eye_Num_of_Saccade,Eye_Mean_Saccade_Duration,Eye_SD_Saccade_Duration,Eye_Skew_Saccade_Duration,Eye_Max_Saccade_Duration,Eye_Mean_Saccade_Amplitude,Eye_SD_Saccade_Amplitude,Eye_Skew_Saccade_Amplitude,Eye_Max_Saccade_Amplitude,Eye_Mean_Saccade_Direction,Eye_SD_Saccade_Direction,Eye_Skew_Saccade_Direction,Eye_Max_Saccade_Direction,Eye_Mean_Saccade_Length,Eye_SD_Saccade_Length,Eye_Skew_Saccade_Length,Eye_Max_Saccade_Length,Eye_Num_of_Blink,Eye_Mean_Blink_Duration,Eye_SD_Blink_Duration,Eye_Skew_Blink_Duration,Eye_Max_Blink_Duration,Eye_Num_of_Microsac,Eye_Mean_Microsac_Peak_Vel,Eye_SD_Microsac_Peak_Vel,Eye_Skew_Microsac_Peak_Vel,Eye_Max_Microsac_Peak_Vel,Eye_Mean_Microsac_Ampl,Eye_SD_Microsac_Ampl,Eye_Skew_Microsac_Ampl,Eye_Max_Microsac_Ampl,Eye_Mean_Microsac_Dir,Eye_SD_Microsac_Dir,Eye_Skew_Microsac_Dir,Eye_Max_Microsac_Dir,Eye_Mean_Microsac_H_Amp,Eye_SD_Microsac_H_Amp,Eye_Skew_Microsac_H_Amp,Eye_Max_Microsac_H_Amp,Eye_Mean_Microsac_V_Amp,Eye_SD_Microsac_V_Amp,Eye_Skew_Microsac_V_Amp,Eye_Max_Microsac_V_Amp,GSR_Mean,GSR_SD,GSR_Variance,GSR_Minimum,GSR_Maximum,GSR_Number of Peaks,GSR_Number of Valleys,GSR_Ratio,Label
-0.2006114578972679,-1.6882617464911185,1.9921526436950656,-0.36429012119638926,-0.3170700511421619,-3.8064535553943255,-0.20763733165701656,-0.6734324789887077,0.3271857647444555,-0.6574131162214821,-0.5089511793171911,0.4236276647802024,0.5822972801205709,1.6537241224608559,-0.2531709626479102,0.799404933822296,0.24159922639751333,1.0276732613644273,2.6037511760320493,-0.7760912424730322,-1.0233558005830279,0.10244192935737188,-1.1673821586832025,-0.6713702817371728,2.678789086687909,0.8541208787296714,1.031435176333418,0.05868976993039672,0.8951657489315036,0.4041285598109018,1.2296857427822452,2.34589575207363,3.725112646318631,-0.30544383526491115,-1.5694435954912072,0.26156345994383245,0.2928672514669009,0.40412855300413325,1.2296857401247514,2.345895543877192,3.7251126483566868,0.5986002207801413,-0.6187320244976454,-0.5427670574429626,2.5935283045127187,-0.299682203490932,-0.5439815106279959,1.5639575967053623,-0.17774183253902376,-0.7537397073184189,0.11978772149824492,1.0779897818605715,0.9839788214254127,1.4686316776192825,1.9930038257366678,1.4535038985245914,-0.27384421473930765,-1.1623199477617994,-0.004096466381742153,0.7068957741987373,1.031369229613378,2.120861760378694,4.109756327857783,-0.13419553061594103,1.1568266524527244,0.3338750654767559,1.0214523563128228,-1.3704219282861707,-0.9925542302609395,-0.4892710486189251,-1.2942596713406531,-1.4298507032120276,-0.7995957367126679,-0.7753700628647177,-0.8888287096839391,1.0
-0.20956677955021563,0.830111631123916,-0.45400764097320595,-0.3374348590089175,-0.28843571469738793,-0.03377245792558317,-0.33455413701048065,-0.6771173575661399,-0.453280633173827,-0.6578316470651075,-0.1912959903979665,0.06281195644496225,0.489604279814235,1.6505428332984533,0.35462952278371407,0.7699106595650912,0.15500431924339325,1.0842308022414628,0.7856701057912681,-0.5844900816304968,-0.6654896701242043,0.558554454736851,-0.6624143133882605,-1.0722935865554164,0.7457109697050553,0.4177730790123839,0.37609689141614894,-1.5381534129985657,-0.39708980014099177,0.12299613550187519,0.49727644799332843,0.2699965123177715,0.8165821408124565,0.22603514572559963,-0.6772436306325734,-0.7379890367637536,0.13927338665572,0.12299612996292739,0.49727644438402796,0.2699963041289101,0.8165821433720624,-0.3886709033634244,-0.3453319211074182,-0.1304550440497301,0.48027216913286463,-0.21368545043827666,-0.036074649483217015,0.7404968026585492,0.19346842125369987,0.3038363838960409,0.8972506096384202,3.0921779743535387,10.38552113750173,4.553011485387059,11.930315102171578,2.6695584077810017,-0.48498792737079005,-2.7031963830219956,-0.4999994422306934,-4.278638696640778,9.725935309875842,-5.6139740713381086,1.656189554163482,2.078015018102185,1.7817266450083846,2.574187873140674,3.6251754421515456,-0.9697126329524732,0.04743191048209755,-0.16882897686890438,-1.1408085491505464,-0.8746658954910816,0.17678041237876677,0.23286307714441726,0.30097481172102397,0.0
-0.057714905289087244,1.362009622540388,-0.7390032611835821,-0.3084733017479186,-0.24161470510525743,0.20879780930954778,-0.3254444290304062,-0.668367470611979,-0.4776748493218913,-0.6495216942247446,-0.3222526151591526,0.21930827422504043,0.8972217796456647,1.9285959398296435,0.43800103313134736,0.46686711684562265,-0.24517251979939128,1.0842308022414628,1.0442291220105375,-0.6427055330580722,-0.6592453025432636,-0.6671212717998308,-0.9671124098361136,-1.0297602101217467,0.9640746109848529,1.2638113247334344,1.1143951562600354,-0.4178281172225509,0.6060173808631751,0.0514034529222022,0.37289753497074163,0.38491872365436747,0.5331058436587919,1.4254705330221544,-0.5343359139511816,-1.1962706741037945,0.28006404942287266,0.05140344628194488,0.37289753048369806,0.38491851546508665,0.5331058429624311,-0.2296318991264203,-0.719558189794157,-0.6732115332188866,-0.4716768783156791,-0.46029378639809715,-0.5258155005424084,0.3754236674822046,0.2704299403976303,0.20532307663062963,0.2307177161814148,0.16743272817538327,0.4492013940590042,1.2872935218485821,0.6666749344181446,3.5642341294646114,-0.9017958710088316,-3.4300985984416332,0.21772755490196347,-0.9203157105066057,-0.3490773487435449,-1.8296140512319377,-1.8627308475612945,-2.6983521323734294,3.451004773483137,-2.74301499352169,-0.31176582297288075,-1.2680679061368487,-0.21039730444101234,-0.28709316674142654,-1.4894495605468459,-1.3020031726262709,0.45246308976928956,0.5175406696175848,1.1294305969955911,0.0
-0.5015950495466371,1.2273074836732298,-0.7046347215932146,-0.2626613838987021,-0.18937638861816972,0.6454242903327835,-0.31686538365111283,-0.6315866715272778,-0.4506815538277623,-0.6155498362232859,-0.9579868629953533,0.9894352282141238,0.5347761850795381,1.0778140539057097,1.2257166573123317,-0.12677542149001908,-0.7269568947613976,0.6904867106136786,0.7280589295693286,-0.5641353073715698,-0.3225722810488033,2.190942333503067,0.03936080238504468,-0.6107139883882872,0.7123942046459566,0.012731842406452048,0.3802246589782658,0.24305469362027024,0.337663929676473,-0.5782003654736393,0.4318553183116195,0.5947234224365819,0.6519777763199659,1.704027727116497,0.07020695562489514,-1.9635738675704884,0.28572464004167664,-0.5782003708509982,0.43185531464958826,0.5947232142465354,0.6519777772378561,-0.6272579893740395,-0.8004719776183167,-0.7098027813312832,-0.7871731174868889,-0.48558694906064287,1.506075450214054,-0.47067065407985265,0.8033553309886295,1.3659243927941171,3.2247027847410528,-0.23318667188088185,1.256994835420701,1.404753333108352,1.8570923345835793,-1.2603183961529065,0.28926672290637995,0.6256426209007376,0.40158843791415033,-0.6130236635968893,1.1010491293387288,-2.076901399778118,0.9488544973288479,0.592978757217702,-0.9417023887047856,1.1582783094774025,-0.09223870446872957,-1.0016262100294475,0.5124997736638879,0.10921394916726886,-1.316195204443766,-0.7776277079215391,0.47543664621849957,0.5412638023236819,0.32741488997446777,3.0
-0.16245860825157316,1.4219773964809521,-0.7828897786379323,-0.310053023053064,-0.24587116052272384,0.017595363371268085,-0.3219951221253295,-0.6747752161087129,-0.45847879186595636,-0.6551190981991747,-0.3457398067917902,0.24054552600380003,0.9563789629249778,2.0496473648431635,0.2068007342811421,0.8284881085571846,0.3783789044706519,0.9130566590516498,1.6376755680056783,-0.6542980381850085,-0.813916816612608,-0.2722345355305009,-0.9736218691693177,-0.7915733020931961,1.6499603938585092,-0.3444686723599408,-0.13883486377111262,0.37237071882724054,0.1673436580745809,-0.6517173590296848,-0.30574035473138306,0.891027123762255,0.280307249894368,0.018159267702095274,-0.9651909656300613,-0.3495721878572654,0.2984421970363646,-0.6517173662356509,-0.3057403579310382,0.8910269155711269,0.2803072529120417,0.17507243315412188,-0.4999036408263504,-0.4506530569638525,0.9786494889392646,-0.30727015228969573,-0.7407799750210752,0.6514099473370286,-1.4409368693024969,0.01661825169296499,0.023013007820877892,-0.39299671507030737,-0.4041179881963706,0.7038558973587019,0.1796645096946728,-2.8300110160897542,1.2394338168602421,2.470406229503935,0.4710974307652308,-2.1670423414798385,-0.4026558417607543,-1.8226328821586082,-1.2062859265920352,-1.0694595604937225,-0.4170017311434069,-1.0653639674708868,-0.9322727138498549,-1.435823641285669,-0.9529786339106401,-0.48469865386076916,-1.3668120866723397,-1.4955011591267444,-0.16782293435938664,-0.12298391344704214,-0.6200212474405956,1.0
0.2897233134751789,1.2836139095268988,-0.6322091375072237,-0.35691808843904405,-0.30971799178472,-0.2221211360140378,-0.32712486059954615,-0.4568608792025422,-0.39350180821433917,-0.43865555761424874,-0.5007416434476734,0.4145048111361526,0.762366923405669,1.9276921970122944,-0.1291470022462837,1.0462045308497872,0.5198575250414668,1.0842308022414628,-0.07943555692739993,-0.42542870320730874,-0.13853999161685304,0.7296589712876096,-0.03321274422344396,-0.5729887327688584,-0.059968830904573465,-0.5922067079248361,-0.7001121268356993,-0.19904947583487878,-0.5159178966074282,-0.7763680913469398,-0.2664325448966783,2.3905515247897355,0.36074067068449817,-0.49660174749887026,0.585392527936048,0.5870509139171606,0.28094688188484834,-0.7763680977342599,-0.26643254914179654,2.3905513165931342,0.3607406707903392,0.9641254967157685,-0.6484924616669566,-0.6673454705391492,-0.3552219713329486,-0.4324713074692969,-0.29472692930569533,-0.23096356376261234,-0.53923709947877,0.3512259061443165,0.6849554800036066,-0.8054781415147082,0.29107588390356076,3.887568034950153,1.8587078730429647,0.47511371411916536,0.06679673346114398,-0.3506697075337047,0.5823280107450345,0.36706075485175416,0.07205978498251718,4.241310603353521,3.878462970680165,-1.531160887110831,-0.38468332197320304,-1.961104547660395,-1.0759602031997584,-1.3322259190280874,-0.8669086062081117,-0.47267266265748614,-1.2714900087269077,-1.3727361989106384,-0.08167209767484834,-0.03402216579917734,-0.5442263564473906,2.0
-0.5563514541307361,1.2903960321071382,-0.5195162682784443,-0.3864062194684248,-0.35499119940686263,-0.4846677781979442,-0.3322545990737628,-0.5775372532789647,-0.4358296718502498,-0.5603914473313613,-0.7030696794336789,0.6553969777835573,0.33265281070320485,1.3347661603812435,0.07152968678035362,0.8062439592740991,0.20298338158891416,1.0842308022414628,2.0778824321411173,-0.741447374493482,-0.7942985495981751,2.525508977437411,-0.6676772805087234,-0.7331361414278063,2.156096809368816,1.0515671541605387,1.6042065469057762,-0.1283906211805892,0.7486110966228987,0.87338712083127,2.401148805246682,1.4877729270195692,3.4081070764175423,1.1600205373417058,0.11213084008701367,-1.0793321191957697,0.30408988279670585,0.8733871146839274,2.4011488010823463,1.487772718826263,3.408107078455813,-0.46914416464799297,-0.6976440388913997,-0.6552677586384097,-0.41597967235389455,-0.45397049573246073,0.7526958907601266,1.0987525858443044,-0.19045525773892155,-0.38057086039565,1.4924938022107692,0.6062748293075848,1.358530243945591,0.9451541748283447,1.216784220179482,2.224120966319698,0.25828758889340026,-1.673587924449087,0.8446691433913921,-0.2270888011105789,1.1607107187449608,-0.1159676752531082,2.4611626723292965,0.7266311852406123,1.3713816541047144,3.2830086463340207,5.652755923365189,-1.086977198706703,-0.23636017547669425,-0.29758372628722396,-1.2935245323795705,-1.0299389262085141,-0.23674360370701744,-0.19415331156533414,-0.6094452161392181,2.0
-0.3322034624622797,1.629195103286791,-0.9547100005965516,-0.4359041536963139,-0.4610156343510259,-0.5702808136926963,-0.33313903674173123,-0.6691153241978046,-0.4676498289870704,-0.6508777137668197,-0.5711844251258538,0.4970081292182155,0.7590423796100616,0.6515169600740157,0.6025375138450123,0.7611582092949765,0.3692931169398419,0.8192626049857664,-0.9559756932702149,-0.20008929484853025,-0.5250674165232125,-2.30032159951929,-0.7419128167342004,-0.10105318207874862,-0.965866092924316,-1.579629275243196,-0.2723168660627534,3.6031207071006097,0.13961710223241242,-2.0185934090850135,-2.4728874905221567,0.16689016798122633,-2.466073772520401,1.4019062271611924,1.1614877742900818,-1.3766078999577218,0.2861421443290461,-2.018593415972306,-2.4728874941194565,0.16688995979274132,-2.466073771204013,1.210362578802046,-0.6520719055842749,-0.6684995716661337,-1.1318531055570344,-0.4489118631999516,3.0234473776254154,-0.9898572634708906,-0.5413942624417608,0.7727413498693637,0.13106986735399379,-1.9126970014916125,-1.2621982579004816,3.588443225690472,0.2157845079484644,0.6757835965858503,0.2958396660981594,-0.04189428245675155,0.5298404055106007,0.7947984522636343,-1.4143065170880762,3.3102738049253913,1.037704689857388,0.18754668475973527,-1.750217417560612,-0.5088207647508486,-1.489146689471172,-1.27917364971968,-0.6047423025960151,-0.4184668484153244,-1.2967295685650835,-1.3115642146275275,1.3541751804007907,1.7096280880989734,0.8297763767898967,2.0
-0.4892307001244214,1.3157544122345624,-0.5588969805584044,-0.32374394103099075,-0.2648317346550742,-0.1536307076182361,-0.3268595292991556,-0.618669200499379,-0.4154083341311701,-0.6041307242900222,-0.49453540870242807,0.40928498395567264,0.6116566824501588,1.4332930726884199,0.7513321169105687,0.05823981847737523,-0.6101517480196494,0.8593159408776502,-0.9694489949334427,-0.2754458141420337,-0.0471064532279494,0.1332038439240017,0.11276534380202746,2.273418789261772,-0.7910662516346674,0.4398113660793806,-0.3326872594553655,-1.5328093757507304,-0.32579294226113,-0.04905729015259514,-0.6173225103360369,-0.9154301841277176,-0.5006650788880254,1.0758275158145525,0.7701509645385403,-0.3478728824415386,0.2982493540722622,-0.049057297173443065,-0.6173225144235023,-0.9154303923122522,-0.5006650766951146,-0.4024087979756478,-0.7347295250111869,-0.673799576588079,-0.5233007481689143,-0.464087760797479,-0.03810018615102803,-0.4730374707729271,0.3035272220062154,0.6792030358602686,0.23884696945411668,0.30207002475980144,1.4201745119020288,0.827042441147016,1.579902961548227,1.5967319980770722,-0.13238035565505793,-0.8125336260054301,0.6982015117309065,1.9007814933876288,0.8229380349544191,2.91244525796294,3.05668764539268,-0.6484018353477957,2.8416107921199347,0.21472299693013006,2.366781495361844,-1.135570063016936,1.0566696439852588,0.5402724518342319,-1.6021442332223597,-0.9576673710748974,0.7855796582828378,0.6658102490306929,0.02776066976877324,0.0
0.24379858704980564,1.155968752031047,-0.5261116805341601,-0.2963621050751372,-0.23194094279283378,0.36004750535027646,-0.32500221019642206,-0.5156693657242918,-0.41429444298285667,-0.4906532994532164,-0.21997673268049853,0.08368477084392438,1.1242368781018555,2.2738393446101277,0.11838797382956907,0.7715235201280798,0.15713414334761777,1.0842308022414628,1.2540741167209397,-0.6470140665953236,-0.8689777382103117,-0.4304414657660317,-1.0344229893241392,-0.8052579536414203,1.2605817580233356,0.7008718355859042,0.5372285362061399,-0.8108717024889783,0.23765028181722242,1.1094335421186887,1.5743961467483372,0.5506448036750339,2.7616657977914882,1.4273585084973417,-0.22792594897651966,-1.0244131117191,0.28519225915679824,1.109433535616085,1.5743961438127063,0.5506445954851481,2.7616657992264537,-0.11809414520284602,-0.6450500768056958,-0.6810666387329667,-1.2701930813456186,-0.45144117946620616,-1.2655445309825468,2.520020040206961,0.7467326198140882,0.8538107250845107,5.746705915134932,1.2819303716011656,1.1642901534653343,0.5574317588556995,1.112781054499317,5.4564103509527735,1.8139420273779572,-4.415337970472049,0.43135833616476893,-2.33195135704632,1.2555392609844382,-1.0844951927982227,0.3893798627495957,-2.5139644665949583,0.8854747991059616,-1.4918320500962585,-0.7110815049776477,-1.466375932864444,-1.0485407439450611,-0.4947095420884626,-1.3812583079229714,-1.551652979295931,-1.5439389656670792,-1.3554006575287965,-1.1787882345300373,1.0
-0.45743665875300904,1.2733907884124438,-0.4682275243012095,-0.288990072317792,-0.2187846260479376,0.40856155879730266,-0.32411777252845364,-0.6555179862737007,-0.4339731866030608,-0.6387958855160006,-0.5441389399637856,0.48157570486904744,0.7716720919932167,1.5024425971955808,0.6863116023804555,0.18037629449392073,-0.6234910633151072,1.0842308022414628,0.20581350744026694,-0.5587447225833735,-0.7429822605833544,-0.8757406638806993,-1.0794352081175722,-0.5733585882161076,0.1410116591905223,2.0808059113334276,3.604684113833046,0.6650159363807538,2.15969474216183,0.4103905952419748,2.444046508014964,2.4343508342840354,3.213727548153301,0.5554891018847805,0.8931478563646992,0.001932504739031131,-0.04520341026020281,0.410390588926236,2.444046503940025,2.4343506260872743,3.2137275488605006,-0.48374857170203195,-0.7625436395757418,-0.7131386000968508,-1.5064550425789904,-0.48685160719377013,0.29619653893993136,0.700497748789655,-0.21557766515704213,0.685507766100503,0.735825417083372,1.831574876499773,4.13159472193478,1.358960523670772,3.2081788128638733,0.9870664565796956,1.64326683878967,-0.5521988304127886,-0.19550866980840537,0.6102356822292209,3.9251989233621596,0.828594230169802,6.195464926479394,0.7367280649550688,1.2548789489984862,0.1434581165627768,0.856072877801423,-1.225122288368277,0.7879329776915085,0.3131463398745424,-1.3707328741277645,-0.9880575623105691,0.04468246279580786,0.4938175369114874,0.6799492666870494,3.0
-0.2647294413296159,1.4503008124474315,-0.7866073466950627,-0.32532366233613613,-0.2872748632198971,0.2630193984562241,-0.32774396696712405,-0.6739763725056718,-0.4558797125198917,-0.6570093690495561,-0.19198256880064202,0.06189495175975368,0.8208821874821643,2.0962035995345083,-0.8451744948670701,1.1113579816404113,0.605894342576489,1.0842308022414628,1.3754550479564003,-0.6520234321422582,-0.7788007745484437,0.3304248279392877,-0.9597719556944153,-1.1222240719340724,1.4579123795922626,0.4292399069584895,0.8370170668608901,-0.5335287517507051,0.16437295566291998,-0.6665573922230744,-0.6824312876046933,-0.16254228694309214,-0.6588607758268976,-1.1835228696043483,2.130265632785251,2.0799389084873448,0.13504051716966303,-0.6665573994660747,-0.6824312915496729,-0.16254249513037475,-0.6588607745557304,1.012716280733422,0.39389882433088946,0.4096539842155042,0.35580738161485603,0.13409553617172662,0.6368092621059698,0.8663852916622032,-1.1168915641116666,0.09518602427856705,0.022070778618330195,-0.36749971615810656,-0.836774271355709,-0.6514350622963794,-0.64744089040384,-1.682309493899171,2.4627002068583366,1.6592940349544534,-2.691013211860898,-1.513319505535244,-0.6472633213395549,-0.6026065627307602,-1.592400665386248,-0.7880024818682074,-0.8946926931155631,-0.02778690322763715,-1.1712182987403128,-1.2430869360268257,-0.3300298699995899,-0.3332746896279377,-1.3324749237779885,-1.187048717419721,-0.2712039383808327,-0.22973801062447993,0.43317520298824214,3.0
-0.6287712150322862,0.8978738643669119,-0.6665909195398533,-0.33269569509348135,-0.28843571469738793,-0.039479993625233314,-0.3284515171014988,-0.5183888333091126,-0.36639712360537885,-0.5018684986733859,-0.857962251455993,0.862411662215192,0.4468728307133268,-0.21087532554250812,0.20409272117171195,-0.3224776071707723,0.2606196008664659,-0.75022127898767,-1.0535350508046506,-0.17178550441881282,-0.23470799774727136,-0.514917647235622,-0.19733421890103753,0.48405813546964765,-1.0249941778676648,-1.8181042996332133,-0.9867557620000879,1.9347678561273678,-0.5476053889984778,-1.9065692932567082,-1.999066557976972,1.532387188404118,-1.851800985017493,-0.053076200080877496,-1.001634325927839,-0.1525585941423299,0.2503707584105347,-1.906569299998293,-1.9990665614204137,1.532386980210649,-1.851800983591814,-0.34257263966984025,0.12835087810937598,-0.3463772474756449,-1.6675329292330194,-0.27944767336089543,1.529971514569116,-0.2960765969270034,0.3776477277556816,-0.11771456662357137,-0.3409480507308108,-1.6983455805152612,-1.7871869917368437,-0.4197697718440579,-1.2208505693423795,0.936824152413545,0.7988441340658942,-0.6671079872477783,0.6184304108524917,0.1695930484046386,-1.8613921933345932,-0.3543560868663674,-1.588871126044037,-0.3062442370066331,-0.8685133853521179,-3.0389962508684807,-1.09270311193745,-0.2607655082986149,0.19511915826090068,-0.08955686968849279,-0.2268029783467296,-0.021268396337609307,-0.644524230680499,-0.7753700628647177,-0.8227285140503301,1.0
-0.3657638394654371,0.9336933505033017,-0.7868660800159228,-0.38272020308975224,-0.3704692191067405,0.10320839886602018,-0.3404798693858689,-0.6611608815122039,-0.39572959051096607,-0.6474621758224953,3.4541929009291152,-2.7183925981224,2.8566052665709503,0.5465168428493374,2.610065165954596,-2.6802215324881735,-3.048609461781318,-1.2184690357960424,-0.7352652420870603,-0.24008985445775438,-0.17868660118155405,-1.13484622993773,-0.4568815974207087,-0.5441400078834128,-0.5140792523029265,-2.246534164760189,-1.626007060974247,4.0111913794470215,-0.9060701466722275,-1.6425229610435903,-2.0136362308659708,4.4237014055223325,-1.4537362676996894,1.9885892496487008,0.8129435283858734,-1.5697337128994362,0.2359557745805739,-1.642522968188243,-2.013636234801362,4.4237011973183105,-1.4537362663843223,-0.6479736313457379,0.9408601648512616,0.3661416481833686,-1.5078937288956253,-0.08342566272616635,1.2985711246464025,-0.622072588053564,0.9636302534739967,-0.21884934407494513,-0.21025495032717723,-1.7220316075653623,-1.6747763729611262,0.06157832014592517,-0.8601199814425738,2.1832827913840074,0.2189460176313764,-1.2587775381090491,-0.8401569126244686,0.08567113941300054,-1.6478150864289793,1.1423022974727561,-0.82820397123451,0.3499185503576641,-2.0547115971376284,-0.3778831207737852,-2.0033041340386997,-0.563500798980913,0.5929221190367705,0.1657400076868003,-0.6108307853601568,-0.26591468052645106,-0.12187582146096644,-0.0755376480348478,0.06301410744003151,0.0
0.7118775294622638,0.9581900817328212,-0.8127043749159513,-0.3558649409022805,-0.32635686296208866,0.3143872197530754,-0.34021453808547836,-0.38411512130858616,-0.39090272886827443,-0.3764621801205816,0.37953284729738845,-0.5258284162731597,1.8567113630660532,0.6981658992280051,1.3054522891742075,-1.0530778735485937,-1.5880443916432552,0.13606027993807188,-0.943126408822696,-0.18682844722191813,0.47587826292849855,1.0542414695125237,0.7542933359595072,-0.5630026356931273,-1.0112764634447862,-2.1410637003770585,-1.78941559892194,-0.38115393495035854,-1.358607147381906,-1.7283922366711404,-2.429843577415431,-0.5446404190955659,-2.383162183216817,2.3311057398839647,0.7922051377805742,-2.2149927937947083,0.27575305590905796,-1.728392242906365,-2.429843581010437,-0.5446406272814539,-2.3831621818573177,-0.5684541292272359,-0.2897036919783084,-0.32168575257509424,-0.9138597689124778,-0.34520989628351423,1.8357660476504256,-0.9955421586007384,1.1172008549852535,0.6137668298110004,-0.33166692745336146,-1.9244990244612787,-1.6193301543638918,0.810738413789322,-0.7847077294758636,1.3476631614522177,1.7792563196721363,-1.3625324826756746,0.3290986942393722,0.18832921824451282,-1.6739452619191426,1.9077763668270369,-0.6898858268439794,0.32513419283975536,-2.1503294068828636,0.2124113224066506,-2.064001738347648,-0.3047593392644492,0.3348579965496962,-0.006819169485956746,-0.29203930831707703,-0.06935770887260462,-0.33438121861616094,0.11424741361393072,0.30097481172102397,0.0
0.4663568766496914,0.9157505252079826,-0.5192485739064293,-0.3558649409022805,-0.3170700511421619,-0.2963191001094896,-0.3284515171014988,-0.39941212647320307,-0.17555044019434304,-0.41214690491202993,-0.7609429966473722,0.7220731643559763,1.0269911318514322,0.8054556001365224,1.1272898138646217,-0.22092926956044115,0.5540061685842936,-0.8858568351057747,-2.1462156024987196,0.25603884011035594,0.5350924749947318,-0.5556738560342391,0.5264622592973625,-0.859996559834317,-2.04248591111881,-2.307177360212705,-1.7821141367132611,1.4544758414016996,-1.2080915585244199,-2.0761022635150286,-2.399499116637909,1.1414945353551884,-2.334220796727343,-1.3045744467927922,1.3629602332985788,1.4918301942210683,0.22756750563434391,-2.076102269462242,-2.3994991203524156,1.1414943271631461,-2.334220795304057,-0.7672671701157676,-0.18856145719810877,-0.5611503353837469,-1.486143017136653,-0.3983255378748602,2.1591510861104575,-1.6215252181363424,-1.2413786140064833,0.16386737251690695,-1.1045118658153685,-2.2936705133280575,-2.1239580201022155,-0.147040018094677,-1.411288257944065,1.959757714045447,0.864957040387558,-1.9962253835178279,0.12284552624837572,0.13885574320488395,-2.198890810444938,-0.6851025541163808,-2.0042932277771426,0.41096421485403056,-1.8483392441183255,1.7342349483559847,-1.3543326831854818,0.44814838443874466,0.8260211599013467,0.3436458695913144,-0.11793725712835314,0.4411506828874693,0.7396325453844174,0.814079828443801,0.512495437748573,3.0
1.1304990741858585,0.9076329972258732,-0.644274501157027,-0.31321246566335476,-0.252062368402675,0.011887827671617947,-0.3260635353979841,0.886216174250824,0.06727783013798656,1.0040268875257363,-1.6476005119526633,1.9787920814596276,0.03940584470207012,-0.8120457103688752,0.0617192083024798,-1.307419420284958,0.6499277061205085,-2.620185215706696,-1.881599859458822,0.1357819523924501,0.32450088565615776,0.565172654320005,1.0249206452591002,0.27361038598479465,-1.848057129661996,-2.47247050813772,-1.900692613147097,5.163644361529005,-1.051634564843612,-2.4405977488968533,-2.793620396660373,2.602573489333304,-2.537373638313289,-0.2455769710150212,-0.513146288935714,0.5339268339498537,0.2557144792807529,-2.4405977552928633,-2.7936204003376615,2.602573281135929,-2.537373636839417,-0.24845535447189762,0.0903021332705623,0.22919853767896228,1.4507091531450094,0.15053609190238132,2.2414736471020738,-1.6272585498114236,-1.3208103848334392,0.14986558765503333,-1.2090694443497536,-2.3170711819054284,-2.16734314422578,0.2394769209972169,-1.2381028800534513,0.39125035711747247,0.21001422973907918,-0.7753002881257056,0.8631962053976402,0.20828850200504737,-2.3299223608467523,-1.1493655075983498,-2.3060060180266624,-0.06579899725571772,-1.2625312531137933,-2.684119446845104,-1.1739226660521105,-0.1900597762154429,3.792098243915283,4.434112442114023,-0.5497438857939031,0.5021388602408242,-0.0070080392149152355,0.04307801549563872,-0.5530397158652051,1.0
-0.7365176885687388,0.999686601476879,-0.4929617390932425,-0.4306384160124959,-0.4517288225310992,-0.476106474648469,-0.32500221019642206,-0.43714473921259145,-0.3404063301447319,-0.42845992195954924,1.2384741585644792,-1.285163217006129,2.0757893310343647,0.06321485872005597,1.3093033408097279,-1.9219852431032516,-1.1351270108241145,-1.9939589039398389,-0.5127252810861093,-0.3191825163707476,-0.04143032343979793,1.9479423111943643,0.9635655285652827,-0.055560962067084434,-0.49064130438866,-1.285557760549767,-0.593941859014517,1.1915349292719801,-0.15943360720811905,-1.3221514346501577,-0.7521222489135271,2.199998038759444,-0.038648810228705435,0.3187002708242618,2.662457481157182,-0.03420178403327942,0.2587189872597227,-1.3221514414691697,-0.7521222528173321,2.199997830563538,-0.03864880991892894,0.12691939898720273,-0.05755818119164901,-0.08789590170273957,0.9069134716693353,-0.0872196371255482,1.2736758415315623,-0.5277557621835058,-0.28478762921368433,0.14259562887422494,-0.4464755514292973,-1.1871366865513926,-0.4859011221879803,2.1183479639917606,0.5039303728164041,-0.674548491922494,-1.080319220644212,0.4946228037975638,0.02832589212923721,0.4755711081802632,-0.6377282580193466,-0.9092054515890667,0.637938533469688,-0.5721996961907695,-0.8836091553879659,-1.753484788501809,-0.7936916727114719,-0.0678370224930554,0.43745216590241803,0.05871170882582166,-0.20344935746100756,0.18681764012882512,0.08488618658192597,0.13797054632002817,-0.47460081704665563,2.0
-0.2583706330553335,0.9685673950395706,-0.5238728693309154,-0.4411698913801319,-0.4401203077561908,-0.6616013848870985,-0.3372958937811827,-0.6745916520467375,-0.4558797125198917,-0.6563527701133933,3.874221257277279,-2.930998042645737,1.492720097979195,-0.48235657008628907,1.072535007949591,-3.0710875425415507,-2.807147339025224,-2.397451344515208,0.15049021216833958,-0.41727772662509527,-0.6106575721496325,-1.0398471047204267,-0.8563131020368943,0.9685687713662336,0.24034684238918563,-1.965318890141004,-1.5294753728304207,0.4231456963219749,-0.9951912190220548,-1.90421988314779,-1.8929643062036736,3.3969007671941163,-1.4680410517991358,0.09509405690735924,1.0955904405230203,-0.009090849585626715,0.2994930671055424,-1.9042198899979996,-1.8929643104731166,3.396900558993842,-1.468041050441125,-0.2744187429078435,0.4579708279711471,0.11217050033523847,0.782571586367237,0.0936264759116535,2.3657124648651,-0.34821741281883645,-0.27039423172393084,0.38700649947363325,0.5225161539390795,-1.4065598409256554,-0.924276014250878,2.091029678341873,0.18083737147901344,1.634974278378304,0.1710167939942504,-1.4107830007819528,0.6502331607661507,0.6946304692158822,-1.005135868130377,1.3022212842088199,0.9561569386766304,0.03701249665670896,-1.5432178692761567,-2.213440605773722,-1.2736449661913036,-0.2232172729838461,-0.7435102141855021,-0.45045510020278473,-0.11935191370046616,-0.3032240219193956,-0.07018531945024334,0.14983211267307672,-0.535412997029576,2.0
0.630626090401988,0.8648390809944795,-0.4629751063541922,-0.46170626834702205,-0.4997106836007205,-0.5445969030442707,-0.33720745001438585,-0.26955754929801057,-0.29956365470657254,-0.2816427685318758,2.3553271566104703,-2.068994247424129,1.4849113491344095,-0.1399073993642334,0.8613528468420037,-2.86166353994323,-2.6811833433663286,-2.0976816967738667,-1.5984397665944736,0.03304493766296255,0.02616961473017239,-0.6680360206102713,0.041299790271531016,0.7392583940716663,-1.6044494152508597,-2.57430459878337,-2.2488757805548905,4.148862227690258,-1.4031676835568196,-2.3314770669298914,-2.9725479540951243,-3.5155758004354656,-3.0872415556281387,-0.9437030174181433,1.522150842947903,1.008810059452474,0.27418639441331993,-2.331477073395008,-2.972547957758924,-3.51557600861051,-3.0872415543494935,0.18805412737209468,0.15127645166336204,-0.012458670541103868,0.6998085333789723,-0.012604807271038403,4.573822530688959,-1.4858655415895896,-0.5372187730015775,0.6169949781918033,-1.232452786475296,-2.443014533942503,-2.415824673883033,-1.8082852207627802,-1.720264075107515,0.14486849102596192,-1.5528071320613677,-0.3614218720638686,0.47567310001521507,0.29567900149454224,-2.4425440949465447,-0.2314270506731341,-2.416754593617426,0.07344417178939681,-1.9818079950117127,-3.408926708701133,-2.0347047076310827,-0.026629204492962945,-0.46384881018249713,-0.37840337427456694,0.02536800185149196,-0.18364830809722363,0.8545003276304682,0.932695491974287,0.49486871891294393,2.0
-0.2728545852356435,0.8791171673366945,-0.6675345811110334,-0.3258502361045179,-0.2799228038624551,0.09464709531654497,-0.3296897298366545,-0.6748432027983334,-0.43471578070193634,-0.6556390756175644,-0.7002671012926581,0.652345174096805,0.4512803532442886,0.11837020226705314,-0.035311762952703815,-0.08595939763503457,0.32994963944344613,-0.45249322518159263,-2.2033204005314024,0.2623071149821847,0.9634174375070508,-0.7408945257749004,1.0540054635563954,3.4950513315262177,-2.181006985451085,-1.4912512598338976,-1.5898014133926568,-1.8859687499330535,-1.250671626424893,-1.7873592183856073,-2.329385636584895,1.552564522378839,-2.0519309811927484,0.6467554139829553,-0.5851755703402176,-0.1974083744468677,-0.0072977826457773665,-1.7873592237721827,-2.3293856402955533,1.5525643141852963,-2.051930979694931,-0.5706979879166342,-0.12956182058013302,-0.22365660464923554,-0.9451182789045948,-0.2680657501627499,1.1168250722135122,-1.816440612848037,0.04155130794563442,0.9969782464262682,0.30186858276251743,-2.0488594411875765,-1.3354927122330849,0.45165379240115133,-0.8050032300979275,0.1332647592870186,0.08405034386005089,-0.3556964472153827,0.8061887084362525,0.6372418262823731,-1.6464680386894321,2.1789302644084243,-0.9088501503706471,0.15684510983542319,-0.708353820645522,0.3943372274251797,0.30200388465345734,0.015564240510547573,0.9553902496766971,0.4514100133239436,-0.14460728743946716,0.19253852498156793,1.3656619586253962,1.4605351946849523,0.32741488997446777,0.0
-0.5457534403402654,0.7971836671309261,-0.5493693184707171,-0.2984684001486644,-0.24200165559775438,0.4057077909474776,-0.32800929826751457,-0.5836560553448114,-0.3860758672255829,-0.5725242537604537,-2.00367232317723,2.5906155448128887,-0.6988763773352071,-0.9393882052501412,0.03374484067195783,-0.8548569443577887,1.050559851978924,-2.2754170699692415,-1.4461371980256161,-0.04549876498352436,0.1164952693444717,-0.2937082094608914,0.5141358363046994,-0.994623942633063,-1.3466362722365677,-1.8836470178625226,-1.3182328844599487,1.5064221894647165,-0.7535740895403008,-1.8258151969347158,-1.7388977225705045,4.167358585753165,-1.0361436964948691,2.299864496900344,-2.058965497968499,-0.8102985474840785,0.29138808024008356,-1.8258152044198512,-1.7388977261394771,4.167358377550079,-1.0361436949746219,1.2498216886612505,0.4461677385367237,0.26755589669192487,1.1710889701406244,0.3566753676021287,0.4946404734247064,-0.27753900890782923,-0.36210435996926116,-0.14419045609296674,-1.0537722197840125,-1.196737731188332,-0.3236036611395366,2.9983936385222947,0.6354650315849831,0.7506920986367117,-0.05548224169303438,-0.41921530918151695,0.1310900815902862,1.7122676838716475,-0.48051404001881726,3.713710187731499,1.7180467413774732,-0.13316672342326646,-1.255108894369674,-0.7264704455615959,-0.7412709794184443,-0.18850929725950663,0.16849766811159,-0.10446657010296768,-0.14801116421653943,0.12008816339077753,-0.9948709665309549,-1.166801752515323,-0.9126247801120384,1.0
0.08129570892925413,0.8911988023574353,-0.3945733434192165,-0.3448068917662627,-0.3193917540971436,-0.09370158277190964,-0.3319008240065755,-0.6448780693480894,-0.4737019708929067,-0.6288041625743952,-0.6915414688194453,0.6292814489725511,0.9329529416312138,1.3546932913186729,1.1174762400682758,0.15159758344819008,0.6125125523608255,-0.3781022891318451,-0.7257593976378109,-0.2489743000972321,-0.3480093216312586,-0.6999209701675932,-0.3581317143446545,-0.8518597399948323,-0.7849341569483713,-1.900462901101727,-1.2704225767246626,0.10167613107355787,-1.0367810527853074,-1.9051855529945974,-2.2858231853672812,0.9495597286524894,-2.1725961757005328,-1.6717964192421786,-0.8365990046594037,1.121999518431629,-0.055541766820319145,-1.9051855591463362,-2.285823189074003,0.9495595204611477,-2.1725961744146915,-0.6955124655150416,-0.052019440244839225,-0.5662013534333771,-1.486143017136653,-0.3818849821442055,3.2254659581678626,-0.9360630254084981,-0.5169833444312245,0.877150406097409,0.4800522203391991,-2.007003429397601,-2.0731865940105587,0.9080757857696014,-1.0790730342013006,-1.2144280322565306,0.23518869838439496,0.7492774028712774,0.6613048396973207,0.36976518672108605,-2.090819844466993,1.037220131513067,-1.445218816302197,0.10746780494113668,-1.4755405452345762,4.740957054790474,-0.19505784206002114,-0.04180409229841278,2.6425066753815734,2.4467344716444335,-0.37813792131893303,0.23611984885076248,0.42948953332007916,0.8971107929151415,1.0853637999065184,3.0
3.2684893862064754,0.8445150802017871,-0.5956408485120377,-0.2853040559391194,-0.2102717152130048,0.4114153266471277,-0.3268595292991556,3.367730345399792,0.8098719290136122,3.3184361811425322,-2.160905597206251,2.8995088365930846,-1.4191291997992717,-1.363559043202065,-0.2516888460528501,-1.888533368456496,0.5722277686755085,-3.440372377655554,-1.2743523347685595,-0.07238716217298477,-0.4112157421633325,-1.6671385238921117,-0.6692007709909628,0.20222828466567927,-1.3405016466317072,-2.711792579835236,-2.6252306805961134,-3.1239830618432536,-1.7269742464278586,-2.568115914978957,-3.1170660296933446,-2.6504783806749836,-3.126338211573674,0.2513699550762106,-0.6620950505510786,0.21351118059513852,-0.023942866161013657,-2.5681159214634586,-3.1170660333701528,-2.6504785888531854,-3.126338209968264,-0.2296318991264203,0.8060038511367137,0.26085808810923844,-1.2626266836190112,-0.04927989313172966,1.3634497391018197,-1.0190757511701853,-0.2914436058783209,0.3244150782183136,-0.9121180226455551,-1.6027677245411835,0.8402286668969959,5.54095768187206,2.2841130528749884,-0.8343008171136446,-1.2092459094551347,0.7550254827043342,-2.621441748184256,-1.1014742286320536,0.46357940150646304,-6.144379623731026,-2.0578477831297395,-0.07761906974377573,-1.3931467206647836,-1.2660342382197427,-1.1930914000998174,-0.26151758664291275,0.32915115577137055,-0.01034537001698998,-0.22695764917933678,-0.15318197185038912,-0.2712039383808327,0.19134759490874678,0.43317520298824214,3.0
0.005343276764213722,0.9788349946710333,-0.24833911822737856,-0.33427541639862673,-0.1665463095608499,-3.7950384839950253,-0.3028028247304154,-0.6332863387677908,-0.4879597775913187,-0.6125931018834229,0.3893215400773651,-0.5337192386044602,0.6177559980461164,1.652767342859894,-0.499884141372659,0.7988967247152678,0.29931245937751133,0.959035469789099,2.7417619754042484,-0.8240780570210187,-1.0645218899872724,0.3242987535024419,-1.2069929112214233,-0.5733585882161076,2.8159662432626393,1.9543819418133164,1.5083780767121522,-0.3859655357082466,1.2516500383308127,1.5772948175709964,1.726272102070799,0.09732177775597226,2.1654473112846717,0.8300517292215578,-1.2170338674707135,-0.9001187541844698,0.295103996278391,1.5772948111024203,1.7262720988915954,0.09732156956774117,2.1654473129973866,-0.34257263966984025,-0.6142016951977349,-0.5699602665226116,0.9877170941697769,-0.3780910077448236,-0.22607630415629493,1.5110126168495057,0.10868456375365258,0.2024282943039509,2.3688513444466075,0.58595930610013,-0.7034977786994339,-1.39504739588857,-0.8191166897252615,2.062222749266518,-0.7242656421990318,-2.0380189180696395,-0.31028478787233743,-0.6333857268787637,-0.4433756555165724,-0.4424627573186054,-1.1040901056538885,0.5031381439767657,0.9893239860878286,-0.8057810347299085,0.20815644724898832,-1.6019610358988712,-1.1773489148618776,-0.5026396345293049,-1.51086327231034,-1.688236775317755,-0.012751428327217543,0.20320916126179572,-0.5556837236905494,1.0
0.0035769411324686135,1.3120688527954267,-0.641237967747288,-0.37218872772211625,-0.22304108146540402,-3.8007460196946754,-0.32730174813313984,-0.6551780528255982,-0.49538571858007496,-0.6357371948195909,0.33522629219202255,-0.5009457236165619,0.6138312411814789,1.9435214647163714,-1.8007240798871555,1.1602230697333795,0.6704219557277556,1.0842308022414628,1.165903945866093,-0.5897179925554823,-0.5873232057650575,0.6062384540680844,-0.5085417746820947,-0.26600871155193745,1.1236480387766394,-0.7534027059074591,-0.2617583238233807,1.2970823150963873,0.09208586364583787,-0.758995126854837,-0.7268030754542567,1.7237660031760085,0.011409619558629062,1.2539862928235566,1.8555065914501563,-1.2865704945017857,0.3028482135192884,-0.7589951336060907,-0.7268030787305949,1.723765794981841,0.01140962289047441,-0.0429339383673768,-0.5860504398842934,-0.6019865341337617,-0.6422145115105858,-0.41223677733926034,0.4644175168372284,-0.3724838246914792,-0.5938524181629903,-0.8001648541381062,-1.7200441296112081,-1.4163332264781139,-1.7619667396752754,-0.6779717302465463,-1.061797192998266,-2.128959079492584,0.5828360883593049,2.3367723265264124,0.7799353439579461,0.30032434758564913,-1.6464560563141908,0.855453814345792,-1.1690056366534547,0.3968138223548388,-1.3250339373212694,1.0071575074985726,-0.8242847472819305,-1.0410869969846135,-0.5540548467245836,-0.4049339247099136,-1.076097371396345,-1.0799731253777016,1.3656619586253962,1.4605351946849523,1.2528176288449946,0.0
0.48578656859888775,1.3275848890583863,-0.6554873806210562,-0.31479218696850014,-0.2644447841625773,-0.92700179492083,-0.2961695422206525,-0.5064911626255216,-0.45996398006370764,-0.49677068084603615,0.014692548443941855,-0.12842218182417403,0.22819206628641672,1.4097411313163812,-1.427759801386232,1.1602230697333795,0.6704219557277556,1.0842308022414628,0.0505513565939211,-0.43560077402809894,-0.5080641682766138,-0.759145230020786,-0.659090334154284,-0.7852857594899579,0.1410116591905223,-0.9071275055054053,-0.8595295391264643,0.08649813851066265,-0.5971170958594929,-0.7408358926934648,-0.9050123766970668,-0.5325273787822437,-1.4308925103205588,-1.3648045155153596,-0.3813897313401375,0.7489740029098381,0.1312423545560572,-0.7408358992224684,-0.9050123810905187,-0.5325275869681758,-1.4308925090386795,0.3350718205317909,-0.2428104744025513,-0.37287416399968254,1.102262930575293,-0.23771395496769507,0.1644929535573638,-0.5776763106588928,-0.13448425300357222,0.22297632221570524,-0.07940089286079048,-1.2783382460828174,-1.279946451923061,0.11868686960783652,-0.8114825116119257,-2.294459220341325,1.4887117158975742,1.5605051854651617,0.3040405623946854,-0.6664107746426188,-1.2394446937008954,-0.930752032069321,-1.4689264925805363,0.2635167108943797,-1.501808599026024,0.37271793516621654,-1.4914096299884356,-0.7195107253701856,0.28750935132262406,-0.035695868591436856,-0.8750090106126318,-0.5960574282167697,1.2393073981547396,1.3300579648014168,1.9490730228523432,0.0
-0.3099476335022911,0.9622271988028792,-0.4218174857551668,-0.33006282625157235,-0.1499074383834812,-3.7978922518448504,-0.3218182345917358,-0.6697951910940099,-0.3619415590121251,-0.6532940794169834,0.5984830067815793,-0.7484181923019528,1.1400611539786962,2.371987353763403,-0.6339670382638478,0.9178759933424249,0.35039637091874454,1.0842308022414628,-0.09316237063052998,-0.40450115604773923,-0.12003150085234585,2.148598380186729,0.4397618009444734,-0.5892623724478276,-0.10386657633979893,-1.0850750469530572,-1.007922571161423,-1.1455917673056377,-0.9189431904560914,-1.4624648196694416,-1.6335874606922338,-0.6677310577402906,-1.9291734880934723,-1.9057717471429085,-1.2887539746831387,1.6640385220673963,0.11947825638672936,-1.4624648254241277,-1.6335874644474706,-0.6677312659257293,-1.9291734867268233,0.4228109043064219,-0.35145368837523966,-0.5238719475569982,-0.9887564361014503,-0.3578564776147871,1.2808769558290605,-1.4213607586396317,-2.059359566926688,-0.005802700705017639,-2.35139959547303,-1.550075765482146,-1.122307389737089,0.7057630282437093,-0.4621165716027965,-0.7465946195570362,0.3595564089376526,0.5376128889128509,0.8896153088011677,-0.09380885824854603,-1.2412372623039833,-1.1463974187333568,-1.077501566829343,0.2996063053840054,-1.1746306228601724,-0.1526517703502526,-1.1430132365263244,-1.6004298972296445,-0.6909490489759693,-0.43921117322461195,-1.5553801115960533,-1.6112565055803048,0.21124074705258217,0.26844777620356325,0.14233434220036234,3.0
-0.09975369332462122,1.1324842085526108,-0.35194238452004456,-0.3332222688618631,-0.15532474527843845,-3.7978922518448504,-0.2718475063515217,-0.6652740762342453,-0.4939747897922113,-0.6452191359784614,0.17670345225096346,-0.31889014708591945,0.8272080713065708,1.7015855519411738,0.1163959132194517,0.6502777910983173,-0.002973978921410917,1.0842308022414628,1.223643157468106,-0.6777398155715672,-0.7026670519356212,0.964368082042981,-0.6457944172183776,-0.3063229553021114,1.3070174962487087,1.5111662278460738,1.407735319149122,-0.34304383685865547,0.9714137774974668,1.2289503763386618,2.0279836900853145,-0.24853408014295353,2.03355879546488,0.8048122302980506,-1.9228244814511848,0.03907093286805019,0.29798392857844386,1.2289503710836323,2.0279836861685068,-0.24853428832992225,2.033558799224227,0.5044829355821986,-0.36859463510686413,-0.298036617295711,2.5666805335528795,-0.10618950912245746,-0.4682897964882445,0.15524543319357853,-0.9787135780168188,-0.22467115666549667,-1.2451744451932827,0.6845929546111895,-0.3093359039651354,-1.761797183726052,-0.5223659561929308,0.38136927498409234,0.14404913662596464,-0.6016788542612999,0.7438861715437803,-0.4702690183201278,-0.1238987700656299,0.2888539439762165,-0.8813483121618821,1.04584393003705,1.0626028736572246,1.1186417007217795,2.272615967436696,-1.6451503332951418,-0.892426530252208,-0.4765355662529796,-1.5994594846397372,-1.6676536990899726,-0.0070080392149152355,0.04307801549563872,-0.5530397158652051,1.0
0.5935330421353404,1.090635038722827,-0.11718889419467723,-0.3411208753875901,-0.2311670418078399,-3.8064535553943255,-0.18658771515936887,-0.13358417005697112,-0.36008507376493604,-0.09914089031275398,0.109909561111193,-0.25696897713294836,0.6474832530537754,1.6422727126872554,0.32697951105303535,0.9556443702165562,0.4002704897916808,1.0842308022414628,2.0147981036292073,-0.7056790212670926,-0.9338024541705879,-0.47016634062698487,-1.222643313448063,-0.8189426051896445,2.093393536515857,0.1624076485670799,0.41261342359436504,0.06468309757825227,0.25250379387552696,-0.18117153965929508,0.7152455370742342,0.9882821449753822,1.3294916817865743,-0.09039902095661623,0.35218227046419504,0.2155453243988865,0.2953001267697843,-0.18117154569584726,0.7152455328508526,0.9882819367838992,1.329491682184232,1.5058470823879122,-0.5559761059687818,-0.5856255797097005,0.11114139223007774,-0.3654444264135508,-0.6907882347423886,-0.2982761582532394,-0.7391207907356644,-0.01465717433438191,-0.5388966884947846,-0.8191969951601471,-0.7886847897026645,0.8570182781374558,-0.012172923197022421,-0.42872095663059295,-0.44456033703397113,-0.7251760871393302,0.47001247826266657,1.4119025294677805,-0.830008736520929,1.8156314749268123,0.5746177693599823,-0.3441242304973313,-0.40505623179216105,-1.2133137549784407,-1.2376657713055295,-1.6109764437254364,-1.1771882652592383,-0.5026337223924572,-1.5154927737167345,-1.6978167604116403,-0.24823038193162245,-0.20601487791838266,-0.6182585755570326,2.0
-0.15133069377157887,1.2009415622745696,-0.517710763201395,-0.37060900641697087,-0.230393140822846,-3.7978922518448504,-0.2907744724460453,-0.6736704324023794,-0.4990838371924756,-0.654160708447633,0.21960459562528623,-0.3783286451690348,0.5342327729263296,1.7901430794658775,-1.3165762636438962,1.1185089789017817,0.6153374194834531,1.0842308022414628,1.435418358816857,-0.6744402930739808,-0.6809392415248338,3.3479164154944097,-0.11035676227865039,-0.7930527238821933,1.446559777702688,0.8446858082479194,0.5219060857814868,-0.5515603715939633,0.28914245695267815,0.30333909511479024,0.04461916269470562,0.4189781155274481,0.9096654388558183,0.8816478102560499,-0.022084135595096317,-0.6284777833229029,0.27887359082812524,0.30333908885380956,0.04461916001309701,0.418977907338043,0.9096654400715851,0.9426151302622571,-0.6264008682434922,-0.6267509010752289,0.3828939594760417,-0.3957962216086056,-0.17126506006381764,0.44538977868470775,-0.6984498828012754,-1.056276131288366,-1.487005852606111,-0.6799329500554445,-1.3417672472191677,-1.3094473208460016,-0.9222579044049377,-0.38212932584437365,0.7434353919620307,0.7129006139006984,0.44474271055963716,-0.9605056902387041,-1.1733449170185426,-0.47483730890297243,-1.6664544865397435,-0.17411462500902622,-0.5230867514389717,-0.0941352841054259,-0.6741714098477025,-1.4186151138987066,-0.9350365078419224,-0.4824270322382443,-1.3421076002843526,-1.4345694199891252,0.2629312490633049,0.32182482479228186,-0.38646722286851026,2.0
-0.8142364563655244,1.0468325880794667,-0.36141562001282246,-0.37008243264858903,-0.2389060516577788,-3.8007460196946754,-0.3254444290304062,-0.4850753553950579,-0.4588500889153942,-0.4712815917092873,0.1965839124944466,-0.3583259963292333,0.5052091255750091,1.7379353031070763,-1.2238757438441434,1.191546845467548,0.7117858120491836,1.0842308022414628,-1.0630530305436097,-0.17781121787967563,0.11618198049538368,0.06628921756989585,0.4080454990869469,1.4856266866207584,-1.072296650760722,-1.402860087934456,-0.37272097900037154,0.5662036696423441,-0.5713710082917651,-1.1235576926097457,0.34015590373850435,2.523906043340897,0.7812331287399481,-1.1016407535585622,-1.5306035176826527,0.431296201578718,0.1662162260609937,-1.1235576993478165,0.3401558997201889,2.523905835143809,0.7812331302098336,1.4294286761420751,-0.5555181277600206,-0.6011159179087258,-0.10662810523825517,-0.39453156347547835,1.426091157418348,-1.932327996174673,-1.860261085950902,0.76245814937248,-1.7087843115527832,-1.589057051461962,1.1631101154399641,6.231934427792394,3.4737007303116303,-2.019919230754974,-0.588500419550794,1.1618234201017967,0.3430105646366347,1.7251334886446914,0.7684178396054377,6.509880732515902,6.664334040279028,-0.05466947426879561,-1.6359326201028674,-0.8712417959887275,-1.567834762036608,-1.5367661311193486,-1.0183752620019761,-0.49192923119436116,-1.4614575317667604,-1.5853550581560745,-0.40330188796379157,-0.36614602368453947,-0.34240042577943747,2.0
-0.31065416775498916,1.2132743200229155,-0.5274421346116224,-0.26424110520384747,-0.1824112797532247,-3.789330948295375,-0.28184165199956457,-0.6677555904053943,-0.48899940932974456,-0.651407886820864,0.43841216589825854,-0.5872617990066812,0.6873694227245093,1.9397499460729815,-1.023023319566741,1.0370041929776244,0.507708240833765,1.0842308022414628,-1.0517070936083621,-0.23425096126260167,0.012458324829372935,0.3385245554204072,0.3875476271440913,2.616274788861875,-1.0363499032811274,0.02012992560297854,-0.2620804090406,-0.05934008672287548,-0.04852738383944514,-0.6941804555534408,-0.9874530693215262,0.08557947136388866,-0.762567524893207,0.3304820306088741,-0.6918692662749918,-0.6714159210909986,0.2688860478818556,-0.6941804615073923,-0.9874530728123608,0.08557926317570043,-0.762567523319997,0.27074795331774226,-0.3556869591893381,-0.43408709531927464,0.016448625066716925,-0.3009468616240593,-0.3448772098200558,-1.558141174755946,-1.4345217503864875,1.098387183047549,-0.606301429534613,-0.48511166091673286,0.1026640819982629,-0.09689513889805024,0.338382518396583,-0.19778430394954488,-0.019735978867423995,-0.4051721033461478,-1.3606211222713984,0.6872958392754378,-0.44317998201213643,1.488768919778609,1.1969743885193245,0.48978321159071286,1.957529548220632,0.6296428310499472,1.4877265313221564,-0.5742122995475987,1.3918299475433435,0.8625011260991796,-1.0909197943341014,-0.2189911507510186,1.7504690291496674,2.0536135123373844,0.5301221565842023,0.0
-0.18029859813219892,1.0297280515932952,-0.3836319314013729,-0.3295362524831905,-0.19827624994559948,-3.7978922518448504,-0.30068017432729127,-0.6674156569572917,-0.47269946885942465,-0.6562712050281557,0.06723581402102549,-0.21530697331718365,0.4714902099223416,1.4029550853762425,-0.11397497127337827,0.7806574650083699,0.3460991192456109,0.8762450142456585,1.7169674888669404,-0.7632394981861541,-0.9351039221592353,1.0212540483976011,-0.9471685344322541,-0.47719617193128905,1.7206790611121252,2.766531396341935,2.3233418160587718,-0.22516098337611748,1.380380476169452,2.617712226618209,3.2026316635984227,-0.7124676839139222,2.6972969497053625,0.09230121986813514,0.3781229086658232,-0.12932575993339554,0.25965834416961564,2.6177122210057395,3.202631659212469,-0.7124678920991977,2.6972969522237267,0.5658637674939243,-0.5194410537928438,-0.5622322737913862,-0.020403347897083184,-0.37682634961169637,-0.6393248649312051,1.2693992881286846,0.7066053487424352,-0.3007565877916234,1.71643521472958,0.3438517871466193,0.3362779786005702,1.173168603813796,1.0279798477789053,-0.0962767309568397,1.3068096077646485,-0.02259371872139,0.34603944349441845,1.0460167149092963,0.20366685597759557,1.4217587459872032,1.3302372083660468,-0.597151586157108,1.346845005738795,-4.422526722318136,-0.28450822212125354,-1.7047386938685503,-1.2430847132527685,-0.5042247943757128,-1.6018570237520084,-1.7899728202093355,-0.2712039383808327,-0.03995294897570181,-0.5574463955741124,1.0
0.757802255887637,1.154875304086611,-0.2586587905064964,-0.37008243264858903,-0.19672844797561168,-3.7978922518448504,-0.18269618942030794,-0.34774224236160817,-0.42246297807048855,-0.3479144002874228,-0.15904021589346734,0.038458470141594286,0.575023107771672,1.2560839054098891,0.1867520339073117,0.2723738411675722,-0.3785924581648545,0.9288679190237635,0.8268621108256531,-0.6877860530180392,-0.9139879936700976,0.01575341121728094,-1.096193603422204,-0.7545877573682658,0.7583088699497845,3.357698846957925,3.3135718037036934,-0.510741510919127,1.3823609444438927,2.5145288841016677,3.9252605885642695,-0.149055640869546,3.19409801916627,0.2768996995005985,-1.2203626432256647,-0.9018074654119059,0.02723873678269283,2.5145288780152812,3.925260584982917,-0.14905584905687785,3.194098019989693,0.36330700355000695,0.0904225400668011,0.028313950566409243,1.2634292434082632,0.016482329790889143,-0.7256416305581838,0.5140276230477273,-1.4448479631242346,-0.31271550856388336,-1.2129547843694362,0.7170614553002489,1.7890452263910053,0.9709189240858265,1.5018826370686313,1.5804683078980546,-1.6567501192468874,-2.1632609249245687,-9.280302353807718,-0.5293907008755062,1.3697902187190671,-2.7126524044761875,-0.8459447777072353,-0.3112618109939193,2.5553049111733817,-1.7088605018359373,0.7033469436893233,-1.6248219895948437,-1.05977536210348,-0.4956554839840855,-1.5401020290161667,-1.6876697543242376,0.42948953332007916,0.4938175369114874,1.0853637999065184,3.0
-0.2241213851557955,1.117438708180104,-0.36196140043196356,-0.3374348590089175,-0.1499074383834812,-3.7978922518448504,-0.30483703136674273,-0.6733644922990871,-0.48628894086884855,-0.657619068061707,-0.23308529021916088,0.11348793067102522,0.7158560543891556,1.318325491744661,0.6110637699171843,0.09129932114588973,-0.7411195113791264,1.0842308022414628,0.3817772825397838,-0.5213927872941894,-0.5439194972004598,-0.4808663395724049,-0.7125510001674072,-0.9868569782408276,0.3056242446110109,0.2582667659613463,0.835471050699353,-0.37361261135324586,0.10991007811580333,-0.4797103437891835,0.35349609259563336,0.6808329200689055,0.3004544467664323,1.1013212866501785,0.20646775852991456,-0.25994035011962147,0.18618424639754455,-0.47971035044435545,0.3534960889243267,0.6808327118785445,0.3004544465674327,0.3350718205317909,-0.4818739380606878,-0.6248928422908668,-1.3737748806286314,-0.4223540424042786,-0.3078233577161436,-0.6543467798202307,-1.6702853014796657,0.08163671267787201,-2.174783057866742,-0.6040776845197591,-0.1415294940208962,0.5093915034856352,-0.12322865911495869,0.7568633879426617,-1.2316615260315729,0.5952110441454765,-0.6231737428710648,-1.05914256055737,-0.41002160006632943,-2.1383724397407975,-1.7597994806808546,1.7906881807576214,0.6967741010771824,2.4112373300183,1.5878330769703364,-1.6534846641967946,-1.2180057664857764,-0.5038163234667118,-1.5553646453788328,-1.7428439835071816,-0.2712039383808327,-0.22973801062447993,0.43317520298824214,3.0
0.7366062283066955,0.3787841606683411,-0.0116753466513998,-0.2600285150567931,-0.1924719925581453,-0.002381011577507403,-0.26848664321324184,0.11116791257689976,-0.17072357855165146,0.1730825816677237,-0.6334972092912512,0.5831854818095672,-0.05844000840637344,0.4794899004659023,0.4008358280573028,-0.01071414366870594,-0.12613257543759288,0.16315087476353227,2.4657403642388767,-0.7774805901518753,-0.9443052448776598,1.580897781034592,-0.9949507359206674,-0.5900020833423263,2.541611917767233,1.1980672010913658,1.4835428416597185,1.4440286201218546,1.870546374093502,1.6731357803426032,2.079928440817184,-0.3009873676054887,2.5376899507086614,1.309277446543621,-0.6246581465978737,-1.3544818959565217,0.2679800976213985,1.6731357735010879,2.0799284371382716,-0.30098757579226604,2.537689950420931,-0.8131590741301089,-0.3908459267585081,-0.7530890215911346,-1.486143017136653,-0.4476472050668243,0.4702874866386734,0.844384289527679,0.9204327212999728,0.6616177335735945,3.2532682005969,1.6324814525740685,1.907340455353071,-0.12681691378803295,1.7956004722987897,0.5710898457524712,0.6286948904439069,-0.7635028783944859,0.6148437567656735,1.2680599914166295,2.0771722762658156,-0.26920619607547286,1.3462204995920957,1.1164175896538442,0.18576501195733588,0.38118343278472167,0.7084556246822147,-0.53022556291473,-0.5503162033884884,-0.4038965824756213,-0.5212799601671301,-0.5874615465483337,-0.16782293435938664,-0.12298391344704214,-0.62266525526594,1.0
-0.17323325560521843,0.5846380937167259,0.06672250552952867,-0.18472846617819583,-0.09573436943390874,0.5483961834387311,-0.2726435002526933,-0.6759479865046669,-0.39944256100534414,-0.656972664761199,-1.1693014532686021,1.2654950068400583,-0.6593193995347931,-0.5000094133540605,0.13178322650303748,-1.0011172506908361,-1.6873176287469491,0.36783529306242485,1.7996270209381167,-0.6605194637690577,-0.8289690305079239,-0.4422124526475888,-1.124308927776256,-1.1296211808790584,1.7535431497806306,-0.5273006495789491,-0.8771871696661971,-1.4304984329057007,-0.724857299560912,-0.04794750620752324,-1.0331677724534087,-2.053672102714182,-1.431252670244056,-1.1349339746709197,-0.7645123259693991,0.5836110537546094,0.281013847005584,-0.04794751162923403,-1.0331677758694668,-2.0536723108945623,-1.4312526690522995,-0.8208421138437617,-0.8561002067474265,-0.9592039847649564,-0.8713808788585701,-0.508350795456934,0.15856119388303477,0.09325580636059706,-0.16213796019808993,-0.6892252712815188,-0.7619624707565354,0.26280835933040453,-0.4302634190023037,-1.5613578364515894,-0.6970453064096075,-1.861350996692743,-0.6429737733032691,1.0563096187300258,-0.7936225220913005,0.5373893072353444,-0.12329887003513847,0.11995284092592398,-0.5511376641607519,0.08531950903272156,-0.5706894082403029,-0.07875234152900376,-0.46407309903156824,-0.8478287445686006,-1.0215949386931185,-0.4922426856183108,-0.7322515924220558,-1.0091510146444356,-1.610562279369789,-1.612796647389952,-1.1188573904888985,0.0
0.040669989399116244,0.5951651513640687,0.16994926618340728,-0.31584533450526375,-0.25438407135765667,-0.2991728679593147,-0.324471547595641,-0.6428044753146636,-0.41875000757611036,-0.635533282106497,-0.2934188393827273,0.16963249461679902,0.30499397300308423,1.110181333089097,0.5171579204903126,0.3236740572792825,-0.06603446974876123,0.6344010666187189,0.0505513565939211,-0.41435053183721815,0.3578649779763579,3.239922166434234,1.2398713023895858,-1.1314704581153048,-0.02360092622996628,-1.4476752717256618,-1.0365732683080926,-0.08383634573495914,-0.868441249457856,-1.1902147145704811,-0.6212132300135713,1.6832338097969188,-0.39828051080906124,-0.7729998260227898,0.7650526069756884,0.5968214637200874,0.2951371985522391,-1.1902147212790537,-0.6212132326130293,1.6832336016028993,-0.39828050879585536,-0.7943356187846314,-0.6538157371870272,-0.5893707371918475,-0.26274231699400813,-0.4830576327943883,1.2544536676886873,-1.9523450107004396,-0.9899040020189589,1.033488197278788,-1.9572569956254486,-1.575366497642916,-0.6770003336375597,1.417811667755742,0.017412706918537364,-1.450304792688445,0.08626379416193783,1.1515616237331663,0.48642828134496663,1.0750130969181588,-0.8305439650826449,2.6561728621458323,0.6872047942288224,0.22338924988933812,-1.8501276421244555,1.457848586506599,-1.6337031501244448,-0.7643601467853012,-0.6210389762962332,-0.4226077150851775,-0.6812836034048909,-0.8261850974629396,-1.1212255270016112,-1.513752568341996,-0.5283623094953244,0.0
-0.02291809334370828,0.5117694074974031,0.29704415341500834,-0.3969376948360608,-0.37820822895667944,-0.476106474648469,-0.32933595476946714,-0.656469799928388,-0.4094675813401651,-0.6378782783070778,-0.7624484176966525,0.7220731643559763,-0.9810844979212516,-0.5389342734120911,-0.4485736348344183,-0.33847414513367424,-0.22209910162344745,-0.26302044381842854,-0.5037730145199738,-0.28912246121613766,0.015818692898002657,3.021767117721193,1.0089932447629626,-1.1174159511198314,-0.40996436149324256,-2.220235073195176,-1.8101675485448232,2.3125439287926866,-1.0783708865485602,-2.1802675907697977,-2.497296398970427,0.6218727735910835,-2.4920998418295386,-0.49466839853973804,2.149011668852424,0.7719894474769521,0.29474107779051884,-2.1802675970932484,-2.4972964025483675,0.6218725654009378,-2.492099840311741,0.0027833536106819192,2.4543629392497683,1.7282706790983577,0.15287510867168883,0.7967763979304238,1.010638764202009,-1.777486068644884,-1.9647046979569558,0.27125640213498775,-2.339636695020483,-2.1478403264013615,-1.9531624915915844,0.6419359570977317,-1.1982446037563537,-1.0071715929793066,-0.1398211731630355,0.3360830312775104,0.2331007963991226,-0.3796935837771801,-2.007710215146891,-1.5060680984459103,-2.2147945446143056,0.3700950487403434,-2.0797684308477695,1.4430272909214974,-1.746057191993057,-0.0686052481851567,0.9861933175528659,0.4780186830206299,-0.6619564894481503,0.0018154777738021992,0.21124074705258217,0.26844777620356325,0.14233434220036234,3.0
-0.06531014850559126,0.6144382886680821,-0.05776682244907619,-0.23527954794284853,-0.17312446793329797,-0.06231013642383387,-0.2754737007901921,-0.6560618797906649,-0.44177042464125477,-0.6366548020285138,-0.6492074367022038,0.6001827443323005,-0.05148263053917784,0.45246150432897275,0.32357655528229035,-0.15264592452005352,-0.7352624950925083,0.6564306495902973,1.568670162109092,-0.6640475808581531,-0.8520217325192644,0.2319715478031104,-0.791772505243849,-0.14913439022115793,1.581371821744115,0.15508675661724486,0.20187708719331235,-0.989085963156699,-0.2455839771462854,0.19396110792119017,0.544525606036529,-0.31295463337711277,0.4933750560459259,0.802963474461287,-0.5967115382477389,-0.6668599429103705,0.30023767159942516,0.1939611023177909,0.5445256021125943,-0.3129548415638464,0.4933750569278134,-0.8602177124938023,-0.5324450554507876,-0.48354026792352983,-0.5540373221682299,-0.4678817351968609,0.5913942314421975,-1.078665430764437,-1.3854807084255423,0.3596561276394688,-1.5003899318341218,0.08071778445236963,0.4775975950825028,-0.8188363354825611,0.04653042847324795,-0.41160549436655874,1.0640420286644081,0.14708201961999476,0.7921069556407041,1.187995288255447,0.39977252123617835,0.13408447464081272,0.09795367403146801,-0.23072603332952862,0.3530504424917993,0.021664101306642522,0.6383602737483416,-0.7162403875888268,-0.8803015274765856,-0.4747313446747023,-0.6186057002833448,-0.8591761063850099,-1.2762970330337802,-1.2676250665162365,-1.0880106325265477,1.0
-0.7471157023592095,0.5819241947930004,-0.026830962854444362,-0.2874103510126466,-0.22265413097290707,-0.08514027922243443,-0.2932508979163568,-0.44088400714172016,-0.37679344098963763,-0.42030341343578953,-0.49438298329834723,0.4145048111361526,0.1268827417184382,0.7435241831081046,0.5059624640795175,-0.28401167631248236,-0.734845988728726,0.4296562346870212,0.49828407528421165,-0.557552828439435,-0.5991168251675495,2.5821801268097944,-0.005789915543137184,-0.37437635759598303,0.5142611337408743,0.6617564593613099,0.7364717610168491,0.15285939943587906,0.7189040725062896,0.37265868320211915,0.7659189609021897,0.36995293260716955,0.9138821450982281,0.519214422730429,-1.4766932141016718,-0.7873363005358693,0.287257964959609,0.37265867745686565,0.7659189570314997,0.36995272441794336,0.9138821458588114,-0.8580289462990183,-0.684158407621087,-0.6683798037329829,-0.20136892579973087,-0.48685160719377013,0.18054663885327774,-1.0930261492454798,-0.3334066809443553,1.2303449163064886,0.7159091841934949,0.9112704156233075,1.895138983882054,-0.3106827071008047,1.3176424954357449,1.4986973640011803,0.28089511544389445,-0.6204333444256183,0.6658884771648419,1.0653452217212633,1.8109274975041703,-0.32549529159838747,1.886299812994159,0.3292829827137327,0.6222353871172804,-0.2889703791918934,0.2442435546089282,-0.5504742067078128,-0.978327000841189,-0.4876967202272014,-0.42423466215350786,-0.7180506438601681,-0.5756035613328682,-0.544069518980269,-0.7654416778345355,2.0
0.0035769411324686135,0.5198521329907662,-0.08097688820880039,-0.291622941159701,-0.21646292309295595,-0.40476227840284223,-0.2971424236554177,-0.6298870042867648,-0.3207275865245278,-0.6162635307191148,-0.40139814692231823,0.29675747670740404,0.2625856379389926,0.8340561884736878,0.7257465200721879,-0.0779872445986091,-0.453701573354804,0.43623487310331804,1.6495730457846194,-0.6285593309199845,-0.8066053900681311,-0.7163677259774153,-1.0373314711538688,0.7396282495189156,1.8013282997087234,-1.1863552227456702,-0.4902358802714175,0.9060470394364517,-0.054468788662766957,-1.440158097757831,-0.908522818429879,2.5834818044754346,0.054149813244969716,0.4917509465860255,0.14928943304588582,-0.4427245531044499,0.2880039650467811,-1.4401581039631084,-0.9085228227183777,2.5834815962781295,0.054149814929973616,-0.8585950081282919,-0.4919881615387077,-0.47940987227214366,-0.5993613678296046,-0.4628231026643517,2.2091089122615246,-1.3514827897533745,-1.2787416998212668,0.9014300811762134,0.26097723603864703,-1.4396532091774092,-0.6509687951576485,1.8850521356159007,0.29604362727546407,-1.1167985019735012,-0.1854449785605703,0.5720821417891508,0.6145403270410881,0.3650929870056082,-0.8543936584281882,-0.42260050017079737,0.8926125223428436,0.3465679670304066,-0.8252552324553739,0.14940437565026063,-0.047280035073667855,-0.33639704781728036,-0.03751933745506156,-0.21062262419335287,-0.3304008153625057,-0.20961833841874025,0.42948953332007916,0.32182482479228186,-0.3071469881081793,2.0
0.10425807214194072,0.6130079177307757,-0.2963223033661385,-0.2905697936229374,-0.20795001225802312,-0.3248567786077403,-0.3101436573745531,-0.6156097994664557,-0.45773619776708074,-0.6035189861507403,-0.681526562442899,0.623724296458325,0.2570002389661927,0.7466712240247219,0.6782614116260214,-0.13373726200483926,-0.7411195113791264,0.6964076721675726,0.5431071403460656,-0.48135027279729253,-0.6171758720257222,-0.23068936976083293,-0.7444058011596828,-0.9321183720479309,0.5241616550556372,-1.6353176213209049,-1.1216596852189944,0.19422775454457736,-0.812988137773519,-1.301851247855743,-0.9548518813386996,1.9421502339685164,-0.4003431875233117,-2.2244160493443075,1.3629716456243508,2.7647872481592244,0.2701170662715665,-1.3018512545585992,-0.9548518843343052,1.9421500257735518,-0.4003431884650955,-0.8342543240578565,-0.7954148658793067,-0.710804696277567,-0.7138260031084219,-0.5007628466581703,2.3657124648651,-1.8306771985586663,-1.8085812301208424,1.19147046293881,-0.9711748735628124,-1.7212824808210387,-0.9627731864749332,1.4367410485254923,-0.027008029910965032,-1.5497390466971581,-2.8504714105519953,-0.5116039146272489,-0.28593104645972706,0.5544552048935423,-1.14631698159513,1.0725569035502356,0.6199595255139055,0.2708196668328229,-1.2988029392415128,-1.4006333211704196,-1.0607986225381012,-0.5092323664914323,-0.21063787131833678,-0.2871915615903909,-0.4658170397745269,-0.45362853221370947,0.3490820857478434,0.1557628958496008,0.15996106103599136,2.0
-0.16899405008903015,0.6842650628619359,0.040874196261805794,-0.273192859266338,-0.2036935568405567,-0.12223926127016034,-0.28776738437495275,-0.6755536637048679,-0.4595926830142698,-0.6561896399429181,-0.7694320916033517,0.7495692503949506,-0.27223531540574175,0.10905559492939917,0.21101626209252955,-0.4139133959332855,-0.846458424475272,0.34313201031427976,-0.5581585388217616,-0.37077306334431726,-0.2684850706044458,0.9331345713904933,0.13215522266689084,0.8287634123059974,-0.5457825876422643,0.5363627086645297,0.11308910235136412,-1.3983335950442508,-0.3426269225938751,0.6646351146156683,0.5727091349501615,-1.5967583250215447,-0.05574021765429611,0.446201585499015,-0.021350450425365573,-0.4928507521845503,-0.14567349092933202,0.6646351084534692,0.5727091306701817,-1.5967585332035925,-0.05574021599627726,-0.738987169387065,0.05080849878550462,-0.4817891018588337,-1.808500933558327,-0.3502685288160234,-0.18246584514965963,-0.9435792279766598,0.583171525295441,0.7857923345801802,-0.1302648966498563,0.8800070136699121,1.277700423465558,-0.969030306759204,0.4148140122781242,0.34731972477205963,-0.33820975682488824,0.22166154849778108,0.16003606614541205,0.5933357509408443,0.8986111816889056,0.6337104214993857,1.3833361748729582,-0.49505619985717075,2.8096874559253036,-0.10827719670050502,1.9324016186275803,-0.464793410298165,0.9699631758299165,0.46395303857383396,-0.5863971111260724,-0.253426581845942,0.01596551723429516,0.06680114820173619,-0.36884050403288116,0.0
-0.7188543322512876,0.5475792743564304,0.22425577252638287,-0.2652942527406111,-0.19556759649812083,-0.23638997526316313,-0.2724666127190996,-0.49153409090900724,-0.4027842344502845,-0.4610859560545877,-0.8807119327160386,0.8886625421909804,-0.28990079027704013,0.12572811826189415,0.2857557442901446,-0.2881562100871854,-0.7181942485955699,0.4019493692264663,0.9454785311499484,-0.7154971233489154,-0.9105527440752212,-0.5325781096285364,-1.1925890012075249,-0.6613841846614417,0.953850218515494,3.751748362251769,1.9969681355328752,-1.7395623869571701,0.9119997292642487,4.5995237039411005,3.5009258435281705,-2.3997428886437295,1.8090172969951166,-0.6779578418852713,0.06472650891978551,0.49403972100110466,0.29493312660948695,4.599523697623657,3.500925839699874,-2.399743096822846,1.809017298276443,-0.7494399198912326,-0.5729019493628674,-0.6124516738026518,-1.5520640107319355,-0.44511788880056974,-0.09772947895974232,1.3511788087591217,1.0472468002235278,-0.15275909614830105,2.130207098749027,2.2042420525670727,2.170806093036858,-0.6268561404337811,0.8080865314520559,-1.3008369269987994,1.5045851958833272,0.017548315078287705,0.744357571294461,1.5773193232007856,2.4277445666467226,0.6906144869773143,2.0536491203981293,-1.462673800212046,0.6105029667859376,-1.200061531472845,-0.11046499694309138,-0.7726533830960173,-0.6862492856134333,-0.43815398927849925,-0.6870206481884336,-0.8258201508613275,-1.5439389656670792,-1.732005389238091,-1.1787882345300373,1.0
1.614916621191959,0.6756257529276719,0.12971942356138044,-0.33269569509348135,-0.29540082356233294,-0.16219201116771131,-0.3166000523507223,0.5224873847810437,0.06727783013798656,0.44326692651726163,-0.46879707277226396,0.38310520799439646,-0.0012391696752585165,0.7106198737518776,0.058633180637564536,0.710149920534701,0.07608871711759377,1.0842308022414628,-0.5704972467914651,-0.3639060387803872,0.1878240982185441,3.509630211095361,0.9851713935861304,-0.5874130952115811,-0.4762855515687406,0.35890765417209536,0.013593975817959026,-1.8589939776192559,-0.5703807741545448,0.8776451027817649,2.2882548724760827,0.15888493756737218,1.3799646089657303,0.7181582461875461,-0.14482916444886762,-0.8455875083157051,0.15728468009147548,0.877645096029582,2.288254868678557,0.1588847293789164,1.3799646081228178,0.15154310973699722,4.1757259735675065,8.701029323715057,1.8603199716065715,4.879092851665298,0.9774219852720083,-1.093491723360028,0.6233474877462533,2.184847758906138,2.7895078618845246,0.07215969507312918,2.5187908955444525,0.5547862087898339,1.397149116046252,0.05496467886715068,0.8489772922471965,-0.23050332886469596,0.3735036583126444,1.9159505246386697,2.2525906998562966,1.1325479306081072,3.0791836155466026,0.8333549028962665,-0.7010515496915222,-0.0003255902237938043,-0.6824392621506333,-0.3925159114692543,-0.1928416157536749,-0.2798525392384062,-0.44288800837492104,-0.45095610453880497,0.04468246279580786,0.4938175369114874,0.6799492666870494,3.0
0.8779130788463057,0.5917963186916594,0.10249027919525752,-0.25265648229944787,-0.16306375512837737,-0.016649850826632753,-0.29767308625619876,-0.26955754929801057,-0.1725800637988405,-0.2653297514843565,-0.8011471748354931,0.7841966673937872,-0.07942605881018719,0.35253465127493633,0.42976873528208087,-0.06140406417970304,-0.5842815806271012,0.6236908320549375,1.3754550479564003,-0.638248856325518,-0.828219400647488,-0.4520541787520488,-1.159903205406755,-0.7301772978498119,1.4579123795922626,-0.029433216569281634,1.334390283476536,1.4868554157683505,0.9862672895557714,-1.0443803088389776,-0.2736384240596736,1.6592639898919916,-0.05339052436350612,-0.4944198146323747,-1.8692024724979384,-0.7614758332318557,-0.47807031849963144,-1.0443803156586213,-0.27363842792550613,1.6592637816980595,-0.053390522707325194,-0.2296318991264203,1.1718016005955767,0.7745666460116245,-0.6414802273977199,0.20238707536059997,0.3098210478665732,-0.6643712399476815,-1.0840172364510563,0.44031401090341765,-0.6494470315983614,0.25028489553023003,0.6634154246810055,-0.2909012106811365,0.45318287905258947,-3.2625619533144965,-1.9106843868666663,0.9554329457317015,-0.6149942081844549,0.03577394216533238,0.6413968353173578,-0.9485259962172298,-0.556915789618837,0.3363092262791213,0.14966966516682567,1.4877173611205057,0.823561294858685,-0.8192507981288261,-0.6174771774909948,-0.42171141954425057,-0.7405384815923418,-0.8754626827785583,-0.6847279544666168,-0.6567543993342313,-0.016306127320299544,3.0
-0.8318998126829756,-2.541452157013098,3.0824723292289153,-0.273192859266338,-0.20911086373551396,0.4028540230976525,-0.314035183113614,-0.3205475665134003,-0.13322257655843234,-0.31121011193050446,0.6790760361612097,-0.7930006909750607,-0.21052124855127044,0.2751071430090942,-0.3782695026401564,0.9738731630221079,0.5337109124469146,0.9578080607762961,-1.1915458501768506,-0.12841864864070085,0.6858445641426816,3.7424731623698673,2.631926105752027,0.11494239911484393,-1.1621713467883399,-1.956274233696916,-1.4137737008661162,2.1080902268083013,-0.822890479145722,-2.0213120779755265,-2.3260326349069236,3.3302049391260833,-1.805991136622242,-1.7364652175725348,-0.20476157848667412,1.5403232419102963,0.2674533166275889,-2.021312083944498,-2.3260326385588974,3.3302047309260523,-1.805991135174095,-0.1543380692739551,0.36645655615823686,0.7550571119228833,2.613575903614824,0.607077677961331,0.28862736670848566,-1.4351818663131766,-0.6477820916434739,0.1870855497015576,-0.8572448913413763,-1.3238890795402403,-0.5999119642261985,1.0850994876262414,0.016008064597196392,-1.504997866205894,-0.623795614196382,0.565515012829217,-0.9075151241925092,0.8089932957951766,-0.9680647956086091,2.2594367256367978,0.6695970356458394,-0.24911904605685067,0.27352744107556737,-4.950131514553702,-0.6184287780806372,-0.7041696426493131,0.033403153542350704,-0.17592227033950403,-0.7168511269031107,-0.6697055894867227,-1.7501266347987412,-1.7569146785794931,-1.2892196280352537,1.0
1.5261582556967666,-2.6581313950665986,3.0479408557189527,-0.3400677278508265,-0.3000442294722963,0.14316114876357117,-0.3312817176389976,0.8182294846303044,0.1860928859580867,0.7389403605035483,1.7954772977873414,-1.7036287740116571,2.1542740120362733,1.0647509000077267,2.5786974535657,-0.6029501322762266,-0.6101517480196494,-0.26525840462676764,-2.0027113673891628,0.1469377627608962,0.6214757131345321,-0.0980306155060561,0.8718791013614287,6.4339227153691745,-2.0258275285892604,-1.063396653215796,-1.116728569688956,-1.5752999583418574,-0.9942009848848344,-1.5478520666585949,-1.9489490612166789,-1.5062552693136084,-2.2254058930219127,-1.345963333565687,3.233621664660543,1.5753128870967343,0.30079346808721225,-1.5478520724765732,-1.9489490650332582,-1.5062554774959866,-2.2254058918035997,-0.4751051488477141,-0.20272137006733676,-0.20010602156607601,-0.19947889631798638,-0.25288985256522245,-0.036074649483217015,0.3893416618686445,1.0948865651285349,-0.26804595215808563,-0.0768449922682385,-1.2331993114264386,-1.4051559341650206,-0.9398409209298357,-1.1142040063221332,-1.9201822611928707,3.2561851668475295,1.8450947885242157,0.8718796501626263,-0.33360876443672927,-1.2779562882520112,0.3879008561213323,-1.2618829050123241,0.31980530299168847,-2.024804102556538,1.1350138646998351,-1.7845757981936712,-0.47797597229696676,-0.0690172172156858,-0.22541260808277855,-0.49852676753274927,-0.43826632709005486,-0.7191882891404323,-0.6923390983933773,-0.4129073011219538,0.0
2.4753693608402796,-2.7453998131799153,3.236039356378901,-0.2795117444869196,-0.22497583392788875,0.4114153266471277,-0.3112049825761151,2.021593890913503,0.858140545440528,1.7177213833547045,0.6383248681043648,-0.7742073131058913,-0.2231904860800539,0.15046237885875446,-0.6115299537701057,0.7974368314163974,0.3282300883358847,0.9230418139656916,-0.943126408822696,-0.2511441088758135,-0.46247468868071484,-0.8234197659234356,-0.51629772622804,-0.7830666268064621,-1.0112764634447862,-0.22348056122392085,-0.5400832364984461,-1.403333199780662,-0.780310411245249,-0.13460007749070418,-0.05719235462882356,-0.1981143434146393,-0.5320548803710095,1.1566355721830097,0.7097009077152616,-1.0301948183963179,0.270541630275624,-0.13460008430177364,-0.057192358700401,-0.19811455160179206,-0.5320548797631572,-0.0037504095690245993,-0.18350434545909877,-0.317660387159215,0.4852144765715686,-0.24024327123394965,-0.78013966626475,-0.09314870335204113,1.2706502516673928,0.736123321437653,0.12008666494647989,0.1498640715929436,0.8414677713618756,-0.4340948973989712,0.026084899335052824,-1.1181794453104705,1.0266995107720378,0.8104537666459674,0.5519464721148135,-0.24049810606856206,0.7757972815201898,0.5559093814758576,0.7105963140266225,0.06883932165309996,0.019438931236583953,-0.8289120186640395,-0.5328996990132944,-0.5359611090390104,-0.7690292556736374,-0.45553057858800805,-0.46026831213346003,-0.6892086280243191,-0.7249316782527347,-0.6982698815699016,-0.1132530809162594,0.0
0.5387766375512415,-1.9541545836379683,2.555588959042104,-0.2015788267664134,-0.0996038743588782,0.8080890577728125,-0.29218957271479473,-0.36133958028571206,-0.12579663556967607,-0.3581100359421224,-1.9333414530502353,2.4599265848720515,-1.6204650726396954,-1.412860357049212,-0.8292487892629039,2.2821255525679014,3.271279705992429,0.04528756516354716,-0.6064256785975777,-0.3405209946516188,-0.06800414662955807,1.6056787854248118,0.46898511837651746,-0.699849151175369,-0.6140295598261676,0.0007477670835105159,0.9931314982963907,0.31001010448659194,0.4059900851446739,-0.4060107023424148,0.7557617619272954,1.7179185885488144,1.2610509129401082,-1.6545718916770011,-0.05541533916307459,1.3587037971526221,0.26313244885329573,-0.40601070878334283,0.755761757612938,1.7179183803546683,1.261050914722787,-0.3472396194200276,0.3512852209412069,0.4373864439835282,0.5781653806728494,0.13030156177234475,0.380082978289085,-1.6203087285252853,-1.478844645246079,0.7988084375036084,-1.6060904035479098,-0.5963238615659515,1.1662936808442537,1.722370262244304,1.7197522918021757,-0.8305564225567371,-0.35503436071669164,0.7102098684569361,0.38173642069254593,2.3668665778214892,0.9116962514711757,2.088890568224897,3.634109289579677,0.7534750371117898,-0.7924392487461399,0.5039324689634109,-0.6623716986528407,-0.6164109846040184,0.3376813210468448,-0.0050700292902425515,-0.6725547126859666,-0.5341574853389247,0.21124074705258217,0.26844777620356325,0.14233434220036234,3.0
-0.258900533744857,-2.7983414924258954,3.356989729439302,-0.26950684288766547,-0.19634149748311475,0.23733548780779848,-0.31491962078158237,-0.6759717818460341,-0.38087770853345354,-0.6562814006638104,0.886259661969666,-0.9782250475562476,0.13880938116275546,0.3719906001996404,-0.03057644966306106,0.7570557996673579,0.25011183775402424,0.9512914349875686,-4.641815871744764,13.451079413531193,9.959904571136883,-3.6852020545609743,8.624229669803304,2.337033926188652,-4.591600285848507,-1.2620341437306883,-1.092926589162204,-2.607404377146742,-1.345734103598042,-1.0168500874988853,-0.6793244011743731,-3.108845098159917,-2.3266804953186337,3.64702951516416,-2.919653974398595,1.6205766281504905,-0.38257116595236723,-1.0168500932356033,-0.6793244054662978,-3.108845306336446,-2.3266804940255597,8.692686824038203,1.6789010012286283,2.562698181891493,7.029600935852047,5.766882861120653,-2.4514127603578113,-1.301243531759205,-1.7983249471877627,0.02621855505413775,-2.601886136229037,-1.9502391289744296,-1.6014682445190094,0.49117892832943383,-1.1583321112677374,-1.2737993599644628,-0.9679135617896817,-0.4376105443562692,-1.070641430206509,0.6058204900439473,-1.7157144374975941,1.6910749772608344,-1.356960514331806,1.3235978184472874,-1.642208907154648,1.7909020034823229,-1.595697235557459,-0.816288761904614,0.026126365969102474,-0.17957175258858243,-0.8265320516884336,-0.7672578444802614,-1.43309155579964,-1.4295354472353505,-1.154992164101938,1.0
-1.005000704593998,-3.029288580275724,3.5859001322966444,-0.2652942527406111,-0.20408050733305366,0.28584954125482465,-0.29652331728783987,-0.11658749765184119,-0.09609287161465109,-0.1276886701459127,0.616410615376038,-0.7395907638864256,0.6110267522729349,0.20916719511817053,0.3017872064470485,0.6622940332826387,0.3559519497019791,0.6812583315520334,-4.2679028904615866,4.951082126504067,5.501401600349444,-2.40214090483882,4.942645669904746,8.627165517557538,-4.223136062238128,0.2733159728940733,0.005221120748921143,-1.7582822367127242,-0.7347596409331151,-0.4202378178484056,-0.623555509485843,-2.3263852496104533,-1.7105781218792184,-4.4610647324779,1.3297867453186611,6.111304558855835,-0.5070504204653812,-0.4202378244802244,-0.623555513586338,-2.326385457789838,-1.7105781206214214,-0.6610392772417741,-0.4656911804958559,-0.6090301346966697,-0.8305687987265681,-0.4147660936055149,-2.480985340112069,-0.4077001683748845,-0.7993781387960615,-0.2997895404953724,-1.9420393480274307,0.4001494006147985,-0.28658105752509083,-1.8616889819318478,-0.9407242755115196,-2.1683186652044384,5.219220808774935,3.346899689030453,-2.0604269606608376,-1.910704397882776,-0.11471386774099142,0.6565028216960795,-1.1129965209328743,1.7796059221596943,0.37390667648476505,2.169669490064422,0.308197200176555,-0.6946342489019137,1.6869558498513866,1.1820489705525423,-0.8149390879139785,-0.2999050148233999,0.25144447083869986,0.30996325843923334,-0.3952805822863248,2.0
-1.0438600884923905,-2.3497076253538296,2.915864729765576,-0.2500236134575389,-0.17389836891829186,0.4827595228927545,-0.2977615300229956,-0.038402804588243626,-0.0032686092551978316,-0.07263223761053521,-0.19818846548563118,0.0857930632433704,0.292332941190459,-0.36431573085722574,-0.31331856048687584,1.00186400030262,1.2977737239051848,0.1793101611040117,-4.346758301101474,5.894939806279141,5.2697762677812365,-3.429411157522845,3.952515355583972,2.955062378542236,-4.300690110890258,-2.357697877883683,-2.196335766371095,-1.973144350702538,-1.5932926379031176,-2.5334984594336243,-3.054751453528409,-2.322598142524872,-3.163456393661051,-0.4396993929951145,-0.14569152660398027,0.1250847360005469,0.09398103557627355,-2.533498465876208,-3.054751457238156,-2.3225983507042707,-3.1634563921525825,0.6018456464522735,-0.1738795199239321,-0.28518303474515827,1.534129734550012,-0.13021801365187588,-2.473337257449822,-0.7419003908302958,-1.525959310943316,-0.16594305379715993,-1.8901819708388892,-1.9491768463376329,-2.318186742366646,-2.112675804342885,-1.780565695388166,-2.403715786672676,-1.099181366221796,1.7837813791011181,-0.41702129314998865,1.2982386454301433,-2.206822831400755,0.1859732605348526,-2.4104435750807176,0.2882222935554131,-1.7334927150061685,0.036349648555683435,-1.7916164305769202,-0.7356173999828517,-0.0754254583926053,-0.22837486734303025,-0.7340646327262969,-0.6434715151948684,-1.0752784141031908,-0.8821241600421557,-0.9831316554545547,2.0
0.16784615488476526,-2.299611805059228,2.990683642922855,-0.2505501872259207,-0.17776787384326131,0.5227122727903054,-0.3115587576433025,-0.597593326717018,-0.39350180821433917,-0.5802729368580254,0.4878241195633029,-0.6117583296009819,0.040675886663712836,0.03684076180826881,-0.2979556774167155,0.9988760933322283,0.7130345180926435,0.7933634546860455,-4.275373397164905,5.147433204058509,8.738277920933994,-1.6743630517247052,7.248102266937001,1.6853486281353813,-4.265213262393439,-2.693027816020614,-2.5200556802785536,-1.6265382883772268,-1.7012281588601308,-2.7734046937403836,-3.07559613236993,-4.07804010872444,-3.2745116299344676,1.4306188033921807,1.129473954182814,-1.9249060586021194,0.24826685189095687,-2.7734047001461777,-3.0755961360424005,-4.0780403168974315,-3.274511628529054,3.6200896495423676,0.20360940104088035,0.34341356782161797,1.9041689872259882,0.47428857398296614,-1.792111811117745,-0.9313033651721159,-1.0448068089432379,0.3748152311429514,-1.1816554606568266,-1.884195212664639,-1.9337415342538034,-1.1204212525684543,-1.4679101741485794,0.08341276699112835,-3.197378883913631,-0.20985885511666727,-2.66558152997712,2.073741332271289,-2.0147932917517113,0.5535666651875781,-1.9626815540976466,0.46314694388674316,-1.283429741757806,1.0785226490445472,-1.247542746709472,-0.6257904816870254,0.23048969654140275,-0.06932504561847787,-0.6444952261047476,-0.44186194162006104,-1.1556858616754264,-1.1430786198092258,-0.8509312641873366,2.0
0.22083622383711898,-2.634896172474727,3.082213962734711,-0.3032075640641006,-0.2524493188951719,0.40856155879730266,-0.3202262467893927,-0.5289267702002931,-0.4172648193783592,-0.519201079286375,0.6561323491321078,-0.7817099516029741,0.2625386999973349,0.36618369092262076,0.7414250358719522,0.5800402653149319,0.2373826923116361,0.6886749979659353,-3.9307403484949903,2.876938258584499,4.629700941241199,-1.1717354202650438,4.659414939342991,-0.7190816344323328,-3.8979926087060224,-1.4138827467487463,-1.5816240523384524,-2.1433586254033474,-1.2991930991486877,-1.747676014801628,-2.305530222967692,-2.6582883060256925,-2.742712082007238,1.1779999168431545,-1.460199348025413,-2.1280203955777997,-0.2383417554779937,-1.747676019949115,-2.305530226606947,-2.658288514203866,-2.742712080849011,6.553544270487531,2.811788716081376,4.804171349763655,7.144857727302835,8.692037123044061,-2.0592193930575524,1.023669361900739,1.008650796292132,-0.6321341762610779,-0.2248478617136173,-1.3510930319786474,-2.0652892403101104,-1.834913526769762,-1.5216481993566084,2.1257034266548516,-0.4471823269897753,-4.595064793415658,-1.9318910057906642,1.7041219019569136,-1.9572574108264873,0.3645703576201761,-2.065275589918863,4.083362435576697,-0.7813678912523675,1.932817347177228,-0.7734279217723494,-0.36330312074205035,0.13422577557787171,-0.12325922735851166,-0.4099771498759027,-0.2692675252881159,-0.5583733939959606,-0.5262771694506962,-0.6623253726461054,0.0
-3.984526301646945,-2.9220490952099354,3.5373075485159244,-0.2926760886964646,-0.2288453388528582,0.05754811326881906,-0.3097898823073657,9.928445893779942,2.4213011235737194,10.45538113943221,1.3513192291330147,-1.3652752175807739,1.1130344439249784,0.6931483236801561,1.2654500161019986,0.26142831852373577,-0.17735070763384927,0.6655581114501636,-2.371923942317618,0.32672154137367365,0.4433840853088165,-0.05727721323366053,1.0776888155984785,1.8950566667257358,-2.343513760204622,-0.22754759995875792,-0.4297613020025246,-1.125466192795979,-0.6505897392693893,-0.11600778856922182,-0.11639338157210194,-1.0820510329888726,-0.5947260702396054,0.18469421088011995,1.7751582151331378,-0.11465745007354793,0.2273178345785939,-0.11600779539094343,-0.11639338437412959,-1.0820512411727992,-0.5947260692628843,1.460270283047565,0.20027424495180451,0.27781697397377497,1.8052855158106216,0.29217780281263717,-1.6717410704611435,0.19959016572552707,0.0774345153250011,-0.49262352324719394,-1.2050515023311439,0.5832555676999247,1.0115019911610714,-0.38732306750310536,0.5859999660016811,1.0545612732824667,0.9070202246777883,-0.6409832251089398,0.07143809258598413,-0.6910631242851218,1.095915590101526,1.3041528581092303,1.645479495649474,1.9197907844650315,-0.5972708586650409,1.6610618074305534,-0.6036373383022753,-0.44418101520710035,0.5996527408164259,0.1705836497086032,-0.5109929737447728,-0.13992155086381342,-0.449249000862212,-0.413592289096734,-0.6464613256940391,1.0
-0.29899635258547136,-1.8807926753563595,2.52018180742098,-0.20737113821861317,-0.12282090390869498,0.8508955755201885,-0.3009455056276818,-0.5982731936132232,0.08955565310425535,-0.6520706031384196,-1.6714137852055728,2.0571036488210876,-1.1850880562264974,-1.4110662276574422,-1.3026540070445418,1.6946849440271246,2.787734156388079,-0.2731501530171538,-1.036283699330504,-0.1949559044793314,-0.33168374378988075,-1.9362376107966845,-0.676818223402159,-0.9450633127016566,-0.939258459638187,-1.39035625973274,-1.0943835168413358,-0.020478074013194042,-0.9238943611421929,-1.5782610753568733,-2.0972767165265425,-0.8445577578045423,-2.208129518259029,-1.3873784557783564,0.9094933622059245,1.527153705468561,0.18677317508755206,-1.5782610820122915,-2.0972767200597198,-0.8445579659893356,-2.2081295168037456,0.4691889504565119,0.786294082800496,0.4115862390362839,0.03606252154302097,0.12524292923983563,0.8752381683221971,-1.5145100430862275,-1.0232379102263998,1.4007374020205325,-0.26820369192835647,-1.1691083981262835,0.2536663149489981,3.0841846508968347,1.1943673564282404,-3.1576402759955036,-0.23539406796481674,2.8497032471141965,0.6587263244958476,-0.5135253347325138,0.03038545258148162,-3.759800599211347,-1.2024819430631888,0.0403634081906564,-1.2621492943325814,-0.838673460003175,-1.1646696606702707,-0.6918957393613433,-1.0033334038620847,-0.4904119381703615,-0.5715149058301645,-0.8526983306544124,-0.7364184564773398,-0.3068381919192962,-0.13969315916970315,3.0
-1.4766123182699462,-2.674426514763435,3.3268477089289976,-0.2437047282369573,-0.17544617088827966,0.6197403796843578,-0.30085706186088496,-0.09959082524671135,0.011583272722314618,-0.13686474223514228,-0.22551646854637963,0.11348793067102522,0.86366502989349,-0.049084610712409014,1.0318569657248466,0.7715235201280798,1.3120317155567622,-0.16368395152359805,-3.592933779126684,1.7894793848503572,0.9899858762620103,-3.622908596193276,0.270931355685413,4.340171028490873,-3.645077904248268,0.37988269052233525,0.4279469460638386,-1.9370934739654766,-0.6703944220137954,-0.6143494151873898,-0.23999803925959323,-1.8840031529051204,-1.5595378080673938,3.9456426377636915,6.459088313105904,-4.827753133847651,0.2227620049514758,-0.6143494212805692,-0.23999804310807057,-1.88400336108612,-1.5595378067264871,2.0291829710358686,2.0945299883560375,3.7431696797886636,4.073112926147294,3.536025914284122,-2.524076808874867,0.30406427039379175,-0.31522553802635733,-0.5628476309884574,-2.0675197001431607,-0.8566787097394509,-1.5310908070765628,-1.7695925423271077,-1.4963827615791732,5.702533875517976,4.847042645977672,-5.677386516316783,-1.353435064949703,-3.5366497772292265,-1.8579931302140833,-0.39955503493394934,-2.6765720883780375,6.867203786098044,0.674796040022589,1.8198695837016383,-0.03936952232606278,-0.4998620192394789,-0.5680578603970821,-0.40877144579884184,-0.4221863566474416,-0.566852035291193,1.7676991964865747,1.4546044115084278,2.662955135695321,3.0
-0.7135553253560522,1.075818528227357,-1.1315214861254017,-0.3242705147993725,-0.2907574176523696,0.12318477381479567,-0.30068017432729127,-0.4656991488532098,-0.4402852364435036,-0.433557739786899,-0.27400461970473866,0.1444014843745776,-0.6329891736748262,-0.19358540657756013,-0.21390876663786926,0.7884235124432875,1.603266755308768,-0.41761036780930794,0.5335891606071066,-0.5278765855771123,-0.7750109326036221,-1.4700639123356283,-1.0204345767144878,-1.120744650145075,0.5525431289147154,-0.34938584447969323,0.11684829402125178,0.011867559723981916,0.00494525957045122,-0.5549071048301466,0.1245784435110512,1.4427403073449376,0.8643251491608431,0.41082001210544417,1.1693549204462432,-0.32059329498306377,0.29027406395398314,-0.5549071120645085,0.12457844058605287,1.4427400991517958,0.8643251512650568,-0.5308072185362811,-0.3807317032804881,-0.535151806196676,-0.9379493111638831,-0.3920022472092238,0.5459792035033272,-0.508353702911253,-0.5959162073239415,0.1944492930142267,0.6902926672101447,-0.4452665485968159,0.15410340709026563,0.9151003321538752,0.9337269539776761,0.1915931475319476,2.308161829573394,-0.209559632434565,0.12972114181399916,-0.938227944528511,-0.021255157661745062,-2.129454202035598,-0.8011028549525517,0.323519975189804,0.21547190965488922,0.6034983194086068,1.0932766290991713,1.685451889246404,0.1717098771525131,-0.1026820080395539,1.7957609402157777,1.5726577713837564,-0.012751428327217543,-0.12298391344704214,-0.5556837236905494,1.0
-0.6376028931910118,1.1426129671099297,-1.2139963755242913,-0.30268099029571877,-0.29849642750230854,0.26872693415587423,-0.20436491228553352,-0.5945339256840946,-0.4667958457733634,-0.5766025080223335,-0.7875239388716123,0.7769050182590503,-0.19006155061494137,0.18108580368612673,-0.09317863019866872,-0.3527151511430154,-0.02449077175209341,-0.5012346604366595,-0.6085206245884612,-0.29535313782586703,-0.37988015559748656,0.2519698241962403,-0.19968870419177095,-0.9358169265204239,-0.6400582794421025,-1.338101969768649,-1.1055649287954072,-0.7503543590522849,-1.021927540727003,-1.718701083098194,-1.7232616480838832,0.0947663829019917,-1.9025140807809426,-1.0562809154844661,-2.3666297515620696,-0.07496562571503322,0.27575985869643677,-1.71870108994127,-1.7232616517418415,0.09476617471376993,-1.902514079332097,-0.6479736313457379,-0.8291289441056592,-0.7567965379250554,-2.058587381083226,-0.5032921629244248,0.798078958325957,-0.9560542266356201,-0.5993880220223315,-0.30341852529139673,-1.1989228017577072,-1.777730842428379,-1.3506851175247592,1.5170966072858545,-0.5399828405288521,-0.2885464780753386,-2.468759947021305,-2.429735575107475,-3.75116925884852,0.986297188908113,-1.4577561564492143,-1.6600352642017266,-1.2195712902608067,0.44857201472138036,-1.5687314258331502,0.1113299846141149,-1.1106269585153532,2.5003463888577966,1.1657998977228243,0.6404435783046029,2.540126463076426,2.3915990945514367,0.17678041237876677,0.23286307714441726,0.30097481172102397,0.0
-1.6938716009745967,1.1133656890726333,-1.4412293324900065,-0.33164254755671774,-0.302365932427278,0.14316114876357117,-0.30828633827181945,0.12136591601997766,-0.20079863955611427,0.05685233520414897,-0.4997739203198683,0.4180113914495324,-0.26072826072641164,0.2998138364047372,-0.03507424820174491,0.4815413191690116,0.6106741607540653,0.12395597984272846,-1.9368041742393132,0.1044841987183375,0.023731989319591255,-1.1736811197581898,-0.0042664250608979186,-0.8252301477928825,-1.998952000659606,-0.6019241404233951,0.21574162201198954,0.5029147857582316,-0.1732968851292033,-0.24188434497469508,-0.0809673889025011,0.2822447540132462,-0.4140595506924209,-3.0044783620732303,-4.691016707581103,-2.604997178237419,-17.279873669856656,-0.24188435208188191,-0.08096739216577253,0.28224454582434017,-0.41405954674794737,-0.11669115858300032,-0.1394352284428308,-0.23208051856015585,-0.27512799955594525,-0.2351846387014405,0.1644929535573638,-1.0180720210432925,0.1555560162789711,0.4728196137690591,-0.5358358067696557,-1.6406539029330822,-1.2973414527043734,-0.3547575141227037,-0.9690990611371809,0.5382543971161667,-2.0163685982323143,-1.378903736496113,-2.3317192701821465,0.045899992545743215,-1.346653253985144,-1.2022483440284657,-1.971309009601743,0.1926031079164878,-1.8481897817759663,-1.4286482758111678,-2.0516194216787724,2.3045190221415215,0.6657433617337731,0.2190717721732616,2.391547807651362,2.3123225791018673,0.061912630132715564,0.11424741361393072,0.7152027043583076,0.0
-0.20423244594234535,1.2253588493395005,-1.2401531912496397,-0.41431462919266016,-0.4215466841163374,-0.9184404913713549,-0.22028479030896456,-0.6772152583991934,-0.4654591763953873,-0.657765579346065,-0.5849019558290157,0.5215516149517776,0.8812262989451083,0.7201491795084167,0.7591096940402424,0.47011089850725585,0.7892886079667206,-0.07991189372691582,-0.19581503470813386,-0.39271437677412796,-0.315973971475769,0.9371055636666606,-0.06686803396745682,-1.140346988849288,-0.20589917550626144,-0.8831302588302014,-0.49677253673459193,0.8335915856604694,-0.22974023095076057,-1.2790644837436878,-0.5753617797171877,0.648676231663726,-0.5620603434228939,-0.9318786910627316,-1.0394739403902316,0.9014117381255863,0.2961772075188247,-1.2790644888468328,-0.5753617829801507,0.6486760234734825,-0.5620603394874839,-0.06722124099546,1.4954567518922155,1.8150433012783314,1.8085302699482313,1.1685858890698455,-1.7142630211262988,0.948123788752071,1.4248739969858368,-0.21039421961744795,1.3686015088061187,-0.4747114652675277,0.2611665438370962,0.7577853230304772,0.09439046701222471,-1.1891035398535987,-5.9916465456950565,0.21696280945157928,-0.020299039962192303,1.6421335845653684,0.22892711453655337,-1.0978944792159548,-0.0602819403726326,-0.5430102508819387,-1.464263116250215,0.5877412961182092,-1.348870972323867,3.4139982772377473,1.8691690584887464,1.3960842458263938,3.4015661997985047,3.5254139918482923,2.324807940379923,2.178159959044395,1.6406054432288344,3.0
-0.8495631690004269,1.1371096621915007,-1.2995822484228365,-0.3111061705898276,-0.2756663484449887,0.1659912915621717,-0.2875020530745623,-0.32394690099442625,-0.34114892424360754,-0.29183840418657536,-0.1373616989667174,0.0007873800486430507,-0.9252423379023281,-0.5840604710865089,-0.4405103937709598,0.7440049761166433,1.3199808621442664,-0.21067655073146818,-0.6395026526880506,-0.32700641489623616,0.013205869087917098,2.304957545460774,1.0891842437826476,7.0142259121033295,-0.6134627081434711,-0.2564894902326292,-0.10746698788755904,-0.7710991888604147,-0.29905662055618176,-0.378089140028381,-0.2514306374794362,-0.45348550042214575,-0.14013905753410594,-0.10311724826596219,-0.9720561939279507,-0.15821476923261846,0.22090465713943283,-0.3780891470271967,-0.2514306412433596,-0.45348570860836646,-0.14013905474765606,0.03389650112193006,0.2417987517916409,0.2731501402022883,2.2190145571963042,0.3086183585432919,-0.3925980796235913,-0.6414966635730509,-0.24474137436864193,0.9530507088812705,1.896547408858603,-0.2871015233756959,0.3026094571181882,0.3194051598043466,0.6115203760258644,0.1925736476146528,1.1493033772853423,-0.3368522759679969,0.5189048237352877,0.7524345453306793,0.015035208248691725,-0.765759820540484,0.6835612207657096,0.8950446454521369,1.0696367520408978,1.4480263274358063,2.9341121879978758,1.5664620972556045,0.18088104477600092,-0.0975650458777086,1.6718018052056633,1.3828398409421672,-1.1154821378893085,-1.1015631375735555,-1.0210291009511572,1.0
-0.029983435870688774,1.1242556119675033,-1.220610364929916,-0.36429012119638926,-0.35344339743687486,-0.1850221539663119,-0.324471547595641,-0.6445721292447971,-0.4510528508772001,-0.6275806862958312,-0.486470138739273,0.3935212560835673,-0.24078853344082735,0.4833501504901309,-0.40024601563168705,0.912632708570853,1.047671341274626,0.30607706040182614,-1.7403795057462708,-0.005461639965229793,0.2842201641317499,-0.49741134614219334,0.5418356632545042,-0.5256472355209477,-1.6391012336795563,-0.10300447616920332,0.088484190819932,-0.32708818438624027,-0.13071681722873027,-0.3501484046378078,0.6781587817743947,0.6125877472156024,0.4310323493671384,0.8623048643939112,0.10744854183974026,-0.3414868835028352,0.2682076727565985,-0.35014841131961444,0.6781587777810243,0.6125875390254906,0.43103235217844116,-0.46404960818452984,-0.4942357667335695,-0.49542333244355957,-0.526024786393164,-0.37682634961169637,0.9885117006361787,-1.9174802085900402,-1.7582771550737721,0.6275388446987936,-1.9005832985458895,-1.7282288698251016,-0.8698155294948071,1.1103579357093214,-0.059862899050160054,0.1212521315889851,-3.2671763819962023,-0.9191428128894544,-1.201774067814194,1.3427740527801966,-1.188174589034088,-1.0185370537445495,-0.7899202970898522,-0.6112370462447763,-0.4671338808112623,-2.9688660306258274,-1.2510758078682949,1.8035768908519827,0.0523089909862311,-0.16634525251183907,1.9207295997087643,1.7264289613378614,-0.5756035613328682,-0.544069518980269,-0.7654416778345355,2.0
0.7065785225670284,1.0897712261969021,-1.2909178552245946,-0.3442803179978809,-0.33641757576700926,-0.028064922225933032,-0.0626779978769973,0.046580557437405974,-0.2680034055043584,0.06704797085884848,-0.5965015442556387,0.5288183309136066,-0.17186093706189212,0.5422713593990199,-0.3345070364456705,1.0658368632941844,1.2936190717972242,0.2749137098571608,1.0784938763969296,-0.5686444865429897,-0.6698952400155329,1.402384401327952,-0.2672762819492947,-0.9269403957864407,1.233698674375821,-1.2135195877475797,-0.7573824217731238,0.705454648820895,-0.35549996637773906,-1.503650558994843,-1.1136848576294642,2.5410473591373,-0.37066481991307515,0.6888886282513971,-2.18443465586925,-0.5812664057393797,0.2802054130963926,-1.5036505662143935,-1.1136848613373778,2.5410471509401495,-0.3706648171567584,0.017669381231824967,-0.24232654016322072,-0.19985952339099608,1.951051980359428,-0.07963168832678448,0.32986630281782287,-0.7762887232878894,-0.57280890199369,-0.05763936191255861,-0.06445180675989699,-1.7624285280713525,-1.6251942609185313,0.30059660082692896,-0.8782248348858019,1.0959025419394608,-4.591758296334311,-0.6408980478095918,0.5910350414339479,1.4661274185390825,-1.6735390474599763,-0.5066624438809141,-1.373218144031621,-0.19898606495154433,-1.5757255733580124,-1.9169014976876286,-1.9342443735169654,2.0473723546619538,0.7099351834930291,0.2524317941135761,2.108232448593747,2.1971308228565687,-0.5698601722205656,-0.5381387358037448,-0.7592723262420653,2.0
0.10602440777368588,1.2218185083567714,-1.4705295749124954,-0.3505992032184625,-0.3224873580371192,0.10320839886602018,-0.3320777115401692,-0.618669200499379,-0.4686894607254963,-0.6032131170810993,-0.7533632890156666,0.7187614209820543,-0.09005546078055018,0.5006587141762322,-0.009850893379112123,0.1853089072672029,0.8543361426558158,-0.5689895876854022,-1.1701303802379772,-0.12658450731888599,-0.18234190983712156,-0.05962269233304848,-0.013407367954333511,2.6203431987816175,-1.178727208597127,-2.032564912054781,-1.676368341104006,0.2940758174547216,-1.192247812328895,-2.2181773959466944,-2.942039437137821,-2.3293496800781917,-2.9035449449956445,-0.6726822783008379,1.6360855735190472,0.6778478260373526,0.26359270267405494,-2.218177402260815,-2.942039440825856,-2.329349888257566,-2.9035449437905037,0.04201006530226054,-0.31615627630368026,-0.42921112890444013,0.09294066971381587,-0.28956493842591374,0.6743941130958871,-0.6716719717678928,-0.48194818158644936,0.1799047479663851,-0.5385084851167912,-2.1818410851621035,-2.4272252754449677,-2.2940283390974616,-1.7385372320383754,0.33092993247681124,-1.773816107152861,-1.109040254392919,0.757176839700215,0.38182940355214523,-2.3778004087029214,-0.27843681332588904,-2.578186269166829,-0.2247576786951903,-1.5905738547492487,-3.1442143749802587,-2.01126535661412,2.03244698120826,0.10385231887527363,-0.1395362271522072,2.1716832870104144,1.8140869983263466,-0.40330188796379157,-0.6271004834516096,-0.34240042577943747,2.0
0.6076637271893014,1.2399572732243835,-1.5020892599174087,-0.3932516784573882,-0.3894297932390909,-0.09940911847155978,-0.3342888057100901,-0.17097684934825697,-0.3392924389964184,-0.1674516491992409,-0.758498871227821,0.7252632316225318,0.4186369211258522,1.2095544334817747,0.28336391699230257,0.9682966134798972,1.0365075162729365,0.3989829244569528,-2.1210623018564827,0.14541108832521019,0.5890162157647454,-0.2779204356321958,0.9677205026077533,1.7548814522182503,-2.0992457723509133,0.6913302021755635,0.7802700586122928,0.05434919609963676,0.5050134988667042,0.4413326902416342,-0.129547816901501,-2.182062177355936,-1.2280432050419787,1.386385252569595,-0.5116204454881851,-0.7816904392696542,0.23566347077748553,0.4413326828392507,-0.1295478202968515,-2.1820623855358474,-1.2280432035403086,-0.45850519744616186,-0.10891194730870153,-0.3118984220988867,0.21375820454639338,-0.2339199805683132,-0.30878579575162346,-0.7627539838869631,-0.7385268769967771,-0.1789460923978287,-1.365727477039705,-0.6899595913981333,0.415730807827327,0.6388183857990027,0.4694271439369488,0.9115920070106933,-2.4524211252189563,-2.450055504295752,-1.2518587773621033,0.11331189536907017,-0.04093047764567132,-0.7336644916475122,0.6240411090979824,0.5159090627532137,1.2561832563694764,3.821307089108253,4.71100607276081,2.8663079431528775,0.6977206269898238,0.2431359409313738,2.9420108135716996,2.673056595728838,1.5551937993313805,1.4605351946849523,0.4243618435704276,0.0
0.07599670203401875,1.1888379930314064,-1.39544930300358,-0.33269569509348135,-0.31397444720218637,0.13174607736427088,-0.31332763297923927,-0.6122104649854296,-0.4581074948165186,-0.5902646597996309,-0.21343861486605098,0.08368477084392438,-0.7934039860596891,-0.20019616571400892,-0.47355346862980996,0.8147123665743488,1.0126138231196267,0.19927165067065455,-0.057457094008585584,-0.5776280890065849,-0.6924602066513809,1.6211405141203066,-0.4118693786272759,-0.9668847840893653,0.033655624683858305,3.8137743267000617,2.1907088104929953,-1.9369562434578698,0.6307732342936827,3.9826659817623877,3.492109098881218,-2.0451065792569,1.8015068883218321,0.7082767962734102,0.43608719568967014,-0.5803202480888561,0.25035483463269625,3.982665974899275,3.492109095452957,-2.045106787437311,1.8015068898985749,-0.22331843816072525,0.0036087888842705894,-0.05552701770046953,0.12059216319254623,-0.0872196371255482,-0.6393248649312051,0.6145615166089093,0.7736301138398155,-0.4780623219862009,-0.08815207374994202,0.9349968516025359,0.5578016643111755,-1.2087059113025198,-0.18672895369424453,1.244700626697945,-3.957635615367011,-0.9742923520779817,0.8391548181132927,3.4532515264698045,0.6957748187455622,-0.39769726265317207,0.3439432527332987,0.3706722067686102,0.5342686874297717,-0.2540809577816467,0.30212891968857525,1.4312653625890532,-0.355655000583466,-0.34245015076671226,1.5948489000115684,1.1495233219783854,-0.2712039383808327,-0.22973801062447993,-0.5574463955741124,1.0
1.098705032814446,1.2891704680700768,-1.4813926275163516,-0.43011184224411414,-0.44631151563614196,-0.396200974853367,-0.3352616871448554,-0.07239614939850342,-0.35859988556718475,-0.09098438178899435,-0.545169297388853,0.48157570486904744,0.6073677774742409,0.5135588711654229,0.21712265106574932,0.6257611954396346,1.2585642412171776,-0.3201881043587653,-3.2099538111793535,1.0468357164080708,2.453846484751249,-0.7214808025624855,2.3982780654304237,2.955062378542236,-3.254122999985421,1.7515147538620977,-0.5948986683421459,-1.6811014157209458,-0.6119706079177974,0.5474468978039478,-0.7839587568143231,-1.5214581653285602,-1.2696749082649277,0.8673627557212384,2.2495168719157284,-0.6290684152852977,0.07120645961451748,0.5474468923964367,-0.7839587604099794,-1.5214583735108826,-1.2696749068170023,-0.9072763593280514,0.141494018577204,0.2995904862134978,0.49458189767555427,0.38372841569469035,-1.9518474339559224,-3.830484637658687,-3.6369074789738347,0.9978150914975564,-5.097820943862828,-0.12881965947192478,0.5056927670602842,-1.563236756536787,-0.5400414938133374,-0.7093933320925424,-2.5894439695448335,1.680945546578207,-0.9985781455354307,-0.6358236706621776,0.47532666411117963,0.7607946054663518,-0.26657240101086394,-0.10162643599539788,-0.5261121406215741,0.559419021337198,-0.7730613400609097,3.4902145334001737,0.7649970863304227,0.29504961400474883,3.5803957368575055,3.2047002036462713,2.7727922911395226,2.510283816929757,3.5178509992233313,3.0
0.9167724627446984,1.2062932997297782,-1.5684294308467752,-0.4058894488985514,-0.42773789199628853,-0.15077693976841103,-0.0934564287222973,-0.2525608768928806,-0.3812490055828913,-0.23678197165119783,-1.0685063375128747,1.1453475258150392,-0.33466183289877127,0.5731187488822724,-1.2909312599785168,1.5965184759239655,1.5922449652556645,0.719274599695445,-1.6055782482934498,0.0026094223434637437,0.4402476301663443,0.07191912635636323,0.6560974494224491,-0.6247684953837607,-1.669726829818629,-1.59390741561193,-1.1897125580529977,0.43772988946047353,-0.9090408490838884,-1.936146751940498,-2.58557782844408,-0.8334459599721604,-2.6073745197511835,-0.2928846643890166,-0.8730141267664926,-0.5829283332362841,0.12374772662067361,-1.9361467578875076,-2.5855778321368748,-0.8334461681569942,-2.6073745182144537,-0.34257263966984025,0.8612949398203638,0.779074670326521,-0.29327418446487086,0.17077062203241786,-0.19882728630301183,-0.9148797615866091,-1.4627366055303084,0.021628342675888704,-1.555469856900723,-1.6813702249234355,-1.3583248511210138,0.9591774136948137,-0.7791662381017993,-0.9284256977191676,-0.12175144034813902,0.7005367615222178,-3.1032935691931636,0.2031004060245526,-1.724198642822249,-0.9939146792142631,-1.974610187809613,1.3418683286840298,0.08368557484907257,2.787836158203234,1.1819845263649897,3.0708851841528815,0.8290985547259216,0.3461345148102585,3.1814599693465087,3.035167733592402,0.9521379425396117,1.0335188059752005,1.763992475078238,3.0
1.0916396902874657,0.7549376027958661,-0.9994869792762783,-0.307420154211155,-0.3000442294722963,0.08608579176706976,-0.014299257439126311,0.8420248259974863,0.04871297766609594,0.9122661666334405,-0.18695178317488403,0.06462257585989431,0.6592052019065426,1.9283553649324041,-1.2443449747677615,1.1602230697333795,0.6704219557277556,1.0842308022414628,1.7756863673778776,-0.7221112309198986,-0.9205920611385007,0.17835910469625413,-1.026944036047692,-1.1588397612117531,1.7871375504332396,1.2793847252984671,1.3727768769060267,1.9694184877476955,2.29040564827491,0.8477907843084178,0.7735660076849789,-1.0374475881860354,0.8886251082149064,0.8363108517879367,-1.860075865167979,-0.46524007248121124,0.22646012863515247,0.847790778244185,0.7735660051761385,-1.0374477963701247,0.8886251073208431,-0.2955140013061468,-0.593908413540645,-0.5903499533899021,-0.1879139312074987,-0.4109721192061331,-0.16552292902963056,0.3645987214462288,-1.0500069910526477,-0.13677595489820474,-0.3505771493335895,0.7095143309471001,0.2679448613549502,-1.2154735844498652,-0.40751827789413714,1.1934442390428817,-0.03653769709611878,-0.4967255086339604,0.6754111346029372,0.0073771824486820485,0.1299614083802737,-0.2022767048282056,-0.7015960331985149,-1.3087790329188158,2.0433743089427154,-0.0722169484285617,1.0705081239564094,-0.28675166987321954,0.3653311120383396,0.01222210941367388,-0.28840459286164416,-0.041414018234126285,-0.644524230680499,-0.615238917098561,-0.8227285140503301,1.0
-0.7983394356798182,0.6744397726425889,-1.0929546416651574,6.149427393686463,1.998441695959564,0.14316114876357117,7.99773313291973,-0.47623708574439033,-0.2843404756796222,-0.500848935107916,-0.01902804324708907,-0.1251072698393879,0.773612503058646,1.8196476210838184,-0.23211369786984834,0.9428148566387494,0.8618174027701363,0.546934170357184,2.1798608485919693,-0.7151182061085831,-1.0306562801935553,-1.9542170873988727,-1.4416104454862702,-0.5622629247986286,2.131480218852213,0.12928943894166792,0.7861406264670118,1.5842075810342788,1.0031012698885167,-0.044863837808269046,-0.5976763259816598,-0.9249680338683695,-0.4655746767399862,-1.2351727033222788,-0.548283084244494,0.9254084335919366,0.274484309786083,-0.04486384452559243,-0.5976763291433644,-0.9249682420528692,-0.4655746762934172,-0.3886709033634244,0.9358030531122516,1.0423517714594905,-0.6993321953372293,0.14168348497049033,-0.453151452025353,1.5232075904792721,-0.16081844948711355,-1.5115603128208484,-0.17373804070843843,0.18333154569606921,-0.01080324203868838,0.04185981307547832,-0.09422118488809532,-0.9613951544650007,0.3577599508342396,0.5828410279784008,0.7969436636978504,1.8561152533749559,-0.04309822363477841,0.503510460943821,0.5028588197485273,1.3993588530644383,0.7883056001870525,3.0877411229460474,2.477495481592002,-0.5225183573532338,0.8299757743303757,0.3468445764964426,-0.5808844092941499,-0.24401890024393968,-0.7191882891404323,-0.9948090403961177,-0.4129073011219538,0.0
-0.3745955176241627,0.7600365575596769,-1.1745775866374943,2.906786127991346,0.28579881616808017,0.3457786661011511,2.8037844840085575,-0.6628265554079066,-0.43768615709743885,-0.6494911073177805,-0.0838563044787734,-0.07874640221593433,0.8066025969273729,1.843178697345549,-0.29660712041760195,1.2079961966331305,1.1120215293096425,0.6682592133547368,2.700358726897909,-0.7968884281967077,-1.0746484567654917,-0.8013749716408329,-1.3849642993739193,-0.8326272567378686,2.610200502227571,1.4206053613647593,0.5101846672031706,-1.6609141727806234,-0.09110745173991816,3.043146231971016,2.3018985192109955,-1.9645860231366616,1.0157546806552336,-0.10445996454349242,0.40995080942065865,0.04971167951424171,0.2794636990572335,3.043146225418151,2.301898515529281,-1.964586231317367,1.0157546808554272,-0.45551338868381597,-0.5349736113202926,-0.6821179038757479,-1.8069842050707798,-0.4501765213330789,-0.453151452025353,2.081003185150207,0.46942846013709905,-0.8796393296530941,0.297421895348621,1.9148943292877543,1.732209678577154,-0.4447092106108061,0.6322109339376607,-1.2499244563312235,-0.5561152924647234,0.4694200791208682,-0.8265373164472398,0.6724532839787746,1.9783242098216862,0.18722714005727198,1.7581525843717658,-0.0800337204946309,0.7540919267760245,-1.1804322076168678,-0.4383813598790074,-0.5683974313987755,0.3019664217589924,-0.02697041926783965,-0.56610658596719,-0.3796535672003156,-1.1212255270016112,-1.1074939207500798,-0.5283623094953244,0.0
-0.06654658344781288,0.8186458852334196,-0.8849880809323702,-0.5333203008469467,-0.6308869005571852,-0.9098791878218796,-0.22081545290974558,-0.655551979618511,-0.4228342751199264,-0.6454230486915555,-1.4936183874869446,1.758101164978533,-0.7639608802978589,-1.639612457204575,-1.2305328998621763,-1.4954881050756181,-0.5920747575286565,-1.8013902494971352,-2.8647842386209748,0.7205221289976546,2.244669714254744,0.38676654303596686,3.096590702835003,-0.610344132941038,-2.8587466921045657,-0.7393794428149811,-0.5999488414059675,-1.301847471350688,-0.8446756301645687,-0.7636745482645485,-0.8717141084297775,-1.4318017770633482,-1.5883507980357192,1.7700772478031075,0.6173443290240781,-2.481297783397559,0.2552179692309522,-0.763674553946572,-0.8717141113088133,-1.431801985245998,-1.588350796612135,5.743159975785426,5.912338144743535,5.907803481905229,2.1907014037089847,5.768147519253779,-1.8719019682857552,0.44033123036326627,-1.4727246509643943,-0.1335772274756633,-1.0270274719829036,-0.41157457274326376,-0.8795447939064693,-1.2371817779945722,-0.9978819801855648,0.9237210117755628,1.8770591977403253,-1.654647677017884,0.5906092198877054,2.016366212545553,-0.857570847110432,1.2876854293230986,-1.085538743330806,1.7567704743457964,0.2182489238586805,1.734517358890254,0.5251998497536441,0.045204087764647474,0.017055660169401417,-0.18409238102236578,-0.01199724760769284,0.15156330138348323,1.2680243437162526,1.3597118806840387,0.8914698927145983,3.0
1.36542171320796,0.7277737779464843,-0.8207219269514721,-0.2537096298362115,-0.2690881900725406,0.26872693415587423,0.17594328494087458,1.5014957153165271,0.39030626314888367,1.636156298117108,-0.5130179364055683,0.4203641357722845,0.6697435425853634,1.5990902511624752,0.04039119776425285,1.3229345059211273,1.1717728474908355,0.7709890433356286,0.9476215587237066,-0.573828320815323,-0.6690545505646323,0.34248587867237185,-0.45743559395970484,0.019889549171773237,0.9640746109848529,-0.5607236494893749,0.14177045065478475,2.859117106551774,1.0377594646912272,-0.8193460618655987,-0.3911279451611193,2.2972173613267577,1.0697844296439232,0.9707294478516342,-1.0485051695948508,-0.698734479175657,0.3015804425598238,-0.8193460683364218,-0.3911279487300344,2.2972171531304975,1.0697844311415745,1.069186646769854,-0.4317844503840989,-0.3779798953865695,1.446078486414755,-0.18333365524322182,0.8638844099750286,-0.7983791446409334,-1.5391865353476952,0.6578399940281441,-0.149897408036354,-1.0705503966223355,-0.9456904535067048,0.28417179416696464,-0.2952342774207774,1.3850791334696968,0.981319446989753,-0.8365846066436906,0.3637352610450941,0.5524983327300846,-1.1665670219427764,-0.432738232922155,-0.7699627745067552,-0.21146228562833305,0.23682431563162817,-1.2012115111298978,0.061057470747760384,-0.14174433188425606,1.1595494624737492,0.6345824867137144,-0.19571831171732476,0.3608432335744143,-0.7995957367126679,-0.615238917098561,-0.8870660378003761,1.0
-0.3717693806133705,0.44917039941121484,-1.01245650774723,-0.2563424986781205,-0.2009849033930781,0.4599293800941539,-0.29342778544995046,-0.6445381358999868,-0.37790733213795097,-0.6368587147416078,-1.3524426543478854,1.5476168298976736,-0.15733358918209642,0.05055979223785564,0.4768246666634429,-0.6043494646311972,0.7600436368959598,-1.6572512005403415,1.0037887472588862,-0.6391797688140439,-0.7811534453140256,0.31828482324746993,-0.7064570382384502,-0.7442318048452854,1.0884910983863227,1.1342248756174287,0.9171972792529741,-0.2832889621302281,0.5901736346676503,0.672596190776589,0.569812362969802,-0.6721567141693648,0.6503539538688119,-0.0703321021699389,0.1217569303175499,0.09514494547623502,0.28945963308115313,0.6725961847207307,0.5698123603054948,-0.6721569223547873,0.6503539538234401,-0.31630735215631883,-0.5484592425906052,-0.5576703162500969,-0.15600479514485707,-0.39706087974173293,0.18054663885327774,-0.22135633455817175,-0.22944217581502743,0.8070881371974142,1.463686242738522,0.6522935838449263,1.4926333245349306,0.058159789135821365,1.18730033696998,-1.2067743195344764,-0.814476407527618,1.6912973505882414,0.7055568139934308,0.16352060141706956,1.3146717806820458,-1.0585858013880813,1.0053485797278026,0.7019272488643352,1.2208938916907024,1.435148988890642,3.3156114956931413,-0.7828464026850644,-0.000604958115292054,-0.19280314110232236,-0.7525690905201342,-0.510815689686889,-1.5755276057847434,-1.7486115821323591,-1.208753656550607,2.0
-0.5457534403402654,0.5309571843556177,-0.9848585086982772,-0.26213481013032025,-0.252062368402675,0.49417459429205474,0.1549821122100237,-0.5809365877599907,-0.4272898397131801,-0.5662029596545399,-0.6673163774692764,0.6132040962992211,0.5052281922825828,1.1813788690200622,0.2257775108281953,0.7672707941672396,1.1399062035147192,0.0006073573912432591,2.006497528204548,-0.7300409272961133,-0.7708860197736527,3.22815337424587,-0.40937639420179345,-0.6584253410834472,2.085143100029231,0.8711882177430511,0.761516494673547,0.036105084344419495,0.7614841404067626,0.6228518623727524,0.4657219659959467,-1.0372271831566893,-0.09533232936818858,1.1824843908272167,0.1370145471676755,-1.1831866726090743,0.22836848275428018,0.6228518561570039,0.46572196198059945,-1.0372273913407795,-0.09533232857426292,-0.3231001025781587,-0.5796447650485949,-0.5452519050551491,1.1209337517993498,-0.3603857938810417,0.23590417125567748,0.83608237337193,-0.6827768135497208,-0.3825366539531057,0.1481012053031081,0.48662863844659876,0.22250474330227982,-0.02658870355046556,0.8454858600213769,0.6633185529752144,1.0984971785980715,-0.3158385872011493,0.1499177047627882,-0.8704274681108807,0.19139322035705586,-1.3451940480968911,-0.5980028277849144,0.9545043548330299,1.1676199161335368,1.3610978033438847,1.2978422548947304,-0.735748435241168,0.29359699219743657,-0.03203153034218099,-0.7435717227884077,-0.4297762525582267,-1.4066719658830482,-1.5748396350601963,-1.1320774296156204,2.0
1.068677327074779,0.512773955158722,-1.0075721793874475,-0.2447578757737209,-0.17660702236577047,0.37431634459940183,-0.15527862171328782,0.2981313090333289,0.10440753508176788,0.2097868700246421,-1.5291017823515398,1.827527881009722,-0.34057376114173665,-0.25536767051371956,0.5293002387029465,-0.5400533077897207,1.594940354502597,-2.2615298133416646,0.6501844900404333,-0.5216505491468012,-0.7889569690883668,-1.990114453421899,-1.1315108827832052,-1.135538868035047,0.6305922005460978,-0.8623276928975504,-0.35802705199234874,0.09856753022074233,-0.3139101326144863,-0.7885559336017325,-0.3085291624760948,-0.08944720619852702,-0.8013910853836858,1.359692900149715,-0.1838397816504604,-0.8676364061919931,0.28082889877842204,-0.7885559412489249,-0.3085291657149226,-0.08944741438607641,-0.8013910841545487,0.18805412737209468,-0.4879424721474997,-0.600800378172079,-0.8582359024241855,-0.39706087974173293,1.26165743059072,-0.88046458092652,-0.9839007755862101,1.0791927670897188,0.92331737111863,-0.9318863393990188,-0.5725195634735329,-0.4157929613064263,-0.46957843920748876,0.2315735810685971,-2.2984745589551174,-0.49557576476533405,0.8473761062599592,0.37232474099133067,-0.714413494981309,-0.10967643453999602,-0.15670082197048532,0.3053070061499295,-0.22355342393168653,-0.5839033456412013,-0.1877897692137705,-0.7299553034306763,-0.44542130487281634,-0.37259828122719435,-0.6666932166050066,-0.7097983077461552,-1.1556858616754264,-1.4016607663056861,-0.8509312641873366,2.0
